timestamp,pid,value,device_serial,device_number,entry_time
1552378385000.0000000000,22,0E-10,A01A3A,5,1552378385000
1552378385015.6201171875,22,0E-10,A01A3A,5,1552378385000
1552378385031.2500000000,22,0E-10,A01A3A,5,1552378385000
1552378385046.8798828125,22,0E-10,A01A3A,5,1552378385000
1552378385062.5000000000,22,0E-10,A01A3A,5,1552378385000
1552378385078.1201171875,22,0E-10,A01A3A,5,1552378385000
1552378385093.7500000000,22,0E-10,A01A3A,5,1552378385000
1552378385109.3798828125,22,0E-10,A01A3A,5,1552378385000
1552378385125.0000000000,22,0E-10,A01A3A,5,1552378385000
1552378385140.6201171875,22,0E-10,A01A3A,5,1552378385000
1552378385156.2500000000,22,0E-10,A01A3A,5,1552378385000
1552378385171.8798828125,22,0.0100000000,A01A3A,5,1552378385000
1552378385187.5000000000,22,0.0100000000,A01A3A,5,1552378385000
1552378385203.1201171875,22,0E-10,A01A3A,5,1552378385000
1552378385218.7500000000,22,-0.0300000000,A01A3A,5,1552378385000
1552378385234.3798828125,22,-0.0500000000,A01A3A,5,1552378385000
1552378385250.0000000000,22,-0.0500000000,A01A3A,5,1552378385000
1552378385265.6201171875,22,0E-10,A01A3A,5,1552378385000
1552378385281.2500000000,22,0.1300000000,A01A3A,5,1552378385000
1552378385296.8798828125,22,0.3600000000,A01A3A,5,1552378385000
1552378385312.5000000000,22,0.6600000000,A01A3A,5,1552378385000
1552378385328.1201171875,22,1.0100000000,A01A3A,5,1552378385000
1552378385343.7500000000,22,1.3700000000,A01A3A,5,1552378385000
1552378385359.3798828125,22,1.7200000000,A01A3A,5,1552378385000
1552378385375.0000000000,22,2.0600000000,A01A3A,5,1552378385000
1552378385390.6201171875,22,2.4000000000,A01A3A,5,1552378385000
1552378385406.2500000000,22,2.7900000000,A01A3A,5,1552378385000
1552378385421.8798828125,22,3.2400000000,A01A3A,5,1552378385000
1552378385437.5000000000,22,3.8000000000,A01A3A,5,1552378385000
1552378385453.1201171875,22,4.4200000000,A01A3A,5,1552378385000
1552378385468.7500000000,22,5.0600000000,A01A3A,5,1552378385000
1552378385484.3798828125,22,5.6600000000,A01A3A,5,1552378385000
1552378385500.0000000000,22,6.2000000000,A01A3A,5,1552378385000
1552378385515.6201171875,22,6.6800000000,A01A3A,5,1552378385000
1552378385531.2500000000,22,7.1500000000,A01A3A,5,1552378385000
1552378385546.8798828125,22,7.6800000000,A01A3A,5,1552378385000
1552378385562.5000000000,22,8.3100000000,A01A3A,5,1552378385000
1552378385578.1201171875,22,9.1400000000,A01A3A,5,1552378385000
1552378385593.7500000000,22,10.0900000000,A01A3A,5,1552378385000
1552378385609.3798828125,22,11.0400000000,A01A3A,5,1552378385000
1552378385625.0000000000,22,11.8800000000,A01A3A,5,1552378385000
1552378385640.6201171875,22,12.5600000000,A01A3A,5,1552378385000
1552378385656.2500000000,22,13.1400000000,A01A3A,5,1552378385000
1552378385671.8798828125,22,13.7600000000,A01A3A,5,1552378385000
1552378385687.5000000000,22,14.6500000000,A01A3A,5,1552378385000
1552378385703.1201171875,22,15.9600000000,A01A3A,5,1552378385000
1552378385718.7500000000,22,17.9100000000,A01A3A,5,1552378385000
1552378385734.3798828125,22,20.3200000000,A01A3A,5,1552378385000
1552378385750.0000000000,22,22.9000000000,A01A3A,5,1552378385000
1552378385765.6201171875,22,25.3800000000,A01A3A,5,1552378385000
1552378385781.2500000000,22,27.5800000000,A01A3A,5,1552378385000
1552378385796.8798828125,22,29.5700000000,A01A3A,5,1552378385000
1552378385812.5000000000,22,31.6800000000,A01A3A,5,1552378385000
1552378385828.1201171875,22,34.3200000000,A01A3A,5,1552378385000
1552378385843.7500000000,22,37.8100000000,A01A3A,5,1552378385000
1552378385859.3798828125,22,42.5400000000,A01A3A,5,1552378385000
1552378385875.0000000000,22,48.1500000000,A01A3A,5,1552378385000
1552378385890.6201171875,22,54.1000000000,A01A3A,5,1552378385000
1552378385906.2500000000,22,59.8300000000,A01A3A,5,1552378385000
1552378385921.8798828125,22,64.9700000000,A01A3A,5,1552378385000
1552378385937.5000000000,22,69.5800000000,A01A3A,5,1552378385000
1552378385953.1201171875,22,74.1400000000,A01A3A,5,1552378385000
1552378385968.7500000000,22,79.3400000000,A01A3A,5,1552378385000
1552378385984.3798828125,22,85.7100000000,A01A3A,5,1552378385000
1552378386000.0000000000,22,93.7600000000,A01A3A,5,1552378385000
1552378386015.6201171875,22,103.0000000000,A01A3A,5,1552378385000
1552378386031.2500000000,22,112.6200000000,A01A3A,5,1552378385000
1552378386046.8798828125,22,121.7300000000,A01A3A,5,1552378385000
1552378386062.5000000000,22,129.7700000000,A01A3A,5,1552378385000
1552378386078.1201171875,22,136.7500000000,A01A3A,5,1552378385000
1552378386093.7500000000,22,143.3000000000,A01A3A,5,1552378385000
1552378386109.3798828125,22,150.7500000000,A01A3A,5,1552378385000
1552378386125.0000000000,22,157.7700000000,A01A3A,5,1552378385000
1552378386140.6201171875,22,166.6400000000,A01A3A,5,1552378385000
1552378386156.2500000000,22,177.9500000000,A01A3A,5,1552378385000
1552378386171.8798828125,22,191.7900000000,A01A3A,5,1552378385000
1552378386187.5000000000,22,206.9700000000,A01A3A,5,1552378385000
1552378386203.1201171875,22,220.5700000000,A01A3A,5,1552378385000
1552378386218.7500000000,22,228.2500000000,A01A3A,5,1552378385000
1552378386234.3798828125,22,225.3600000000,A01A3A,5,1552378385000
1552378386250.0000000000,22,208.5300000000,A01A3A,5,1552378385000
1552378386265.6201171875,22,176.8700000000,A01A3A,5,1552378385000
1552378386281.2500000000,22,132.7600000000,A01A3A,5,1552378385000
1552378386296.8798828125,22,80.0500000000,A01A3A,5,1552378385000
1552378386312.5000000000,22,23.0700000000,A01A3A,5,1552378385000
1552378386328.1201171875,22,-34.9400000000,A01A3A,5,1552378385000
1552378386343.7500000000,22,-92.4400000000,A01A3A,5,1552378385000
1552378386359.3798828125,22,-149.1600000000,A01A3A,5,1552378385000
1552378386375.0000000000,22,-205.2300000000,A01A3A,5,1552378385000
1552378386390.6201171875,22,-260.3700000000,A01A3A,5,1552378385000
1552378386406.2500000000,22,-313.7400000000,A01A3A,5,1552378385000
1552378386421.8798828125,22,-363.8700000000,A01A3A,5,1552378385000
1552378386437.5000000000,22,-409.8300000000,A01A3A,5,1552378385000
1552378386453.1201171875,22,-450.9100000000,A01A3A,5,1552378385000
1552378386468.7500000000,22,-486.5000000000,A01A3A,5,1552378385000
1552378386484.3798828125,22,-515.7400000000,A01A3A,5,1552378385000
1552378386500.0000000000,22,-537.2300000000,A01A3A,5,1552378385000
1552378386515.6201171875,22,-549.2200000000,A01A3A,5,1552378385000
1552378386531.2500000000,22,-549.9600000000,A01A3A,5,1552378385000
1552378386546.8798828125,22,-538.3700000000,A01A3A,5,1552378385000
1552378386562.5000000000,22,-514.2100000000,A01A3A,5,1552378385000
1552378386578.1201171875,22,-478.6700000000,A01A3A,5,1552378385000
1552378386593.7500000000,22,-433.8800000000,A01A3A,5,1552378385000
1552378386609.3798828125,22,-382.4500000000,A01A3A,5,1552378385000
1552378386625.0000000000,22,-327.0200000000,A01A3A,5,1552378385000
1552378386640.6201171875,22,-269.8400000000,A01A3A,5,1552378385000
1552378386656.2500000000,22,-212.6300000000,A01A3A,5,1552378385000
1552378386671.8798828125,22,-156.6600000000,A01A3A,5,1552378385000
1552378386687.5000000000,22,-102.9500000000,A01A3A,5,1552378385000
1552378386703.1201171875,22,-52.3700000000,A01A3A,5,1552378385000
1552378386718.7500000000,22,-5.9000000000,A01A3A,5,1552378385000
1552378386734.3798828125,22,35.5800000000,A01A3A,5,1552378385000
1552378386750.0000000000,22,71.4300000000,A01A3A,5,1552378385000
1552378386765.6201171875,22,101.3500000000,A01A3A,5,1552378385000
1552378386781.2500000000,22,125.5000000000,A01A3A,5,1552378385000
1552378386796.8798828125,22,144.3800000000,A01A3A,5,1552378385000
1552378386812.5000000000,22,158.6900000000,A01A3A,5,1552378385000
1552378386828.1201171875,22,169.1500000000,A01A3A,5,1552378385000
1552378386843.7500000000,22,176.3700000000,A01A3A,5,1552378385000
1552378386859.3798828125,22,180.7500000000,A01A3A,5,1552378385000
1552378386875.0000000000,22,182.5700000000,A01A3A,5,1552378385000
1552378386890.6201171875,22,182.0700000000,A01A3A,5,1552378385000
1552378386906.2500000000,22,179.5100000000,A01A3A,5,1552378385000
1552378386921.8798828125,22,175.2300000000,A01A3A,5,1552378385000
1552378386937.5000000000,22,169.6500000000,A01A3A,5,1552378385000
1552378386953.1201171875,22,163.1800000000,A01A3A,5,1552378385000
1552378386968.7500000000,22,156.1500000000,A01A3A,5,1552378385000
1552378386984.3798828125,22,148.8100000000,A01A3A,5,1552378385000
1552378387000.0000000000,22,141.3000000000,A01A3A,5,1552378385000
1552378387015.6201171875,22,133.6900000000,A01A3A,5,1552378385000
1552378387031.2500000000,22,126.0200000000,A01A3A,5,1552378385000
1552378387046.8798828125,22,118.3300000000,A01A3A,5,1552378385000
1552378387062.5000000000,22,110.6900000000,A01A3A,5,1552378385000
1552378387078.1201171875,22,103.1600000000,A01A3A,5,1552378385000
1552378387093.7500000000,22,95.8000000000,A01A3A,5,1552378385000
1552378387109.3798828125,22,88.6800000000,A01A3A,5,1552378385000
1552378387125.0000000000,22,81.8300000000,A01A3A,5,1552378385000
1552378387140.6201171875,22,75.2500000000,A01A3A,5,1552378385000
1552378387156.2500000000,22,68.9500000000,A01A3A,5,1552378385000
1552378387171.8798828125,22,62.9500000000,A01A3A,5,1552378385000
1552378387187.5000000000,22,57.2500000000,A01A3A,5,1552378385000
1552378387203.1201171875,22,51.8600000000,A01A3A,5,1552378385000
1552378387218.7500000000,22,46.7800000000,A01A3A,5,1552378385000
1552378387234.3798828125,22,42.0300000000,A01A3A,5,1552378385000
1552378387250.0000000000,22,37.5900000000,A01A3A,5,1552378385000
1552378387265.6201171875,22,33.4500000000,A01A3A,5,1552378385000
1552378387281.2500000000,22,29.6100000000,A01A3A,5,1552378385000
1552378387296.8798828125,22,26.0700000000,A01A3A,5,1552378385000
1552378387312.5000000000,22,22.8100000000,A01A3A,5,1552378385000
1552378387328.1201171875,22,19.8300000000,A01A3A,5,1552378385000
1552378387343.7500000000,22,17.1100000000,A01A3A,5,1552378385000
1552378387359.3798828125,22,14.6700000000,A01A3A,5,1552378385000
1552378387375.0000000000,22,12.4800000000,A01A3A,5,1552378385000
1552378387390.6201171875,22,10.5400000000,A01A3A,5,1552378385000
1552378387406.2500000000,22,8.8300000000,A01A3A,5,1552378385000
1552378387421.8798828125,22,7.3500000000,A01A3A,5,1552378385000
1552378387437.5000000000,22,6.0700000000,A01A3A,5,1552378385000
1552378387453.1201171875,22,4.9700000000,A01A3A,5,1552378385000
1552378387468.7500000000,22,4.0500000000,A01A3A,5,1552378385000
1552378387484.3798828125,22,3.2700000000,A01A3A,5,1552378385000
1552378387500.0000000000,22,2.6200000000,A01A3A,5,1552378385000
1552378387515.6201171875,22,2.0900000000,A01A3A,5,1552378385000
1552378387531.2500000000,22,1.6500000000,A01A3A,5,1552378385000
1552378387546.8798828125,22,1.3000000000,A01A3A,5,1552378385000
1552378387562.5000000000,22,1.0100000000,A01A3A,5,1552378385000
1552378387578.1201171875,22,0.7900000000,A01A3A,5,1552378385000
1552378387593.7500000000,22,0.6100000000,A01A3A,5,1552378385000
1552378387609.3798828125,22,0.4700000000,A01A3A,5,1552378385000
1552378387625.0000000000,22,0.3700000000,A01A3A,5,1552378385000
1552378387640.6201171875,22,0.2900000000,A01A3A,5,1552378385000
1552378387656.2500000000,22,0.2300000000,A01A3A,5,1552378385000
1552378387671.8798828125,22,0.1900000000,A01A3A,5,1552378385000
1552378387687.5000000000,22,0.1600000000,A01A3A,5,1552378385000
1552378387703.1201171875,22,0.1400000000,A01A3A,5,1552378385000
1552378387718.7500000000,22,0.1400000000,A01A3A,5,1552378385000
1552378387734.3798828125,22,0.1500000000,A01A3A,5,1552378385000
1552378387750.0000000000,22,0.1600000000,A01A3A,5,1552378385000
1552378387765.6201171875,22,0.1800000000,A01A3A,5,1552378385000
1552378387781.2500000000,22,0.2100000000,A01A3A,5,1552378385000
1552378387796.8798828125,22,0.2400000000,A01A3A,5,1552378385000
1552378387812.5000000000,22,0.2800000000,A01A3A,5,1552378385000
1552378387828.1201171875,22,0.3200000000,A01A3A,5,1552378385000
1552378387843.7500000000,22,0.3600000000,A01A3A,5,1552378385000
1552378387859.3798828125,22,0.4000000000,A01A3A,5,1552378385000
1552378387875.0000000000,22,0.4500000000,A01A3A,5,1552378385000
1552378387890.6201171875,22,0.4900000000,A01A3A,5,1552378385000
1552378387906.2500000000,22,0.5400000000,A01A3A,5,1552378385000
1552378387921.8798828125,22,0.5900000000,A01A3A,5,1552378385000
1552378387937.5000000000,22,0.6400000000,A01A3A,5,1552378385000
1552378387953.1201171875,22,0.7000000000,A01A3A,5,1552378385000
1552378387968.7500000000,22,0.7600000000,A01A3A,5,1552378385000
1552378387984.3798828125,22,0.8200000000,A01A3A,5,1552378385000
1552378388000.0000000000,22,0.8900000000,A01A3A,5,1552378385000
1552378388015.6201171875,22,0.9700000000,A01A3A,5,1552378385000
1552378388031.2500000000,22,1.0500000000,A01A3A,5,1552378385000
1552378388046.8798828125,22,1.1500000000,A01A3A,5,1552378385000
1552378388062.5000000000,22,1.2500000000,A01A3A,5,1552378385000
1552378388078.1201171875,22,1.3700000000,A01A3A,5,1552378385000
1552378388093.7500000000,22,1.5100000000,A01A3A,5,1552378385000
1552378388109.3798828125,22,1.6500000000,A01A3A,5,1552378385000
1552378388125.0000000000,22,1.8200000000,A01A3A,5,1552378385000
1552378388140.6201171875,22,2.0100000000,A01A3A,5,1552378385000
1552378388156.2500000000,22,2.2100000000,A01A3A,5,1552378385000
1552378388171.8798828125,22,2.4400000000,A01A3A,5,1552378385000
1552378388187.5000000000,22,2.6900000000,A01A3A,5,1552378385000
1552378388203.1201171875,22,2.9600000000,A01A3A,5,1552378385000
1552378388218.7500000000,22,3.2700000000,A01A3A,5,1552378385000
1552378388234.3798828125,22,3.6200000000,A01A3A,5,1552378385000
1552378388250.0000000000,22,4.0100000000,A01A3A,5,1552378385000
1552378388265.6201171875,22,4.4300000000,A01A3A,5,1552378385000
1552378388281.2500000000,22,4.8800000000,A01A3A,5,1552378385000
1552378388296.8798828125,22,5.3300000000,A01A3A,5,1552378385000
1552378388312.5000000000,22,5.7600000000,A01A3A,5,1552378385000
1552378388328.1201171875,22,6.1900000000,A01A3A,5,1552378385000
1552378388343.7500000000,22,6.6300000000,A01A3A,5,1552378385000
1552378388359.3798828125,22,7.1300000000,A01A3A,5,1552378385000
1552378388375.0000000000,22,7.7100000000,A01A3A,5,1552378385000
1552378388390.6201171875,22,8.4000000000,A01A3A,5,1552378385000
1552378388406.2500000000,22,9.1800000000,A01A3A,5,1552378385000
1552378388421.8798828125,22,10.0200000000,A01A3A,5,1552378385000
1552378388437.5000000000,22,10.8700000000,A01A3A,5,1552378385000
1552378388453.1201171875,22,11.7000000000,A01A3A,5,1552378385000
1552378388468.7500000000,22,12.5200000000,A01A3A,5,1552378385000
1552378388484.3798828125,22,13.3600000000,A01A3A,5,1552378385000
1552378388500.0000000000,22,14.2800000000,A01A3A,5,1552378385000
1552378388515.6201171875,22,15.3200000000,A01A3A,5,1552378385000
1552378388531.2500000000,22,16.5000000000,A01A3A,5,1552378385000
1552378388546.8798828125,22,17.7800000000,A01A3A,5,1552378385000
1552378388562.5000000000,22,19.0700000000,A01A3A,5,1552378385000
1552378388578.1201171875,22,20.2700000000,A01A3A,5,1552378385000
1552378388593.7500000000,22,21.2500000000,A01A3A,5,1552378385000
1552378388609.3798828125,22,21.9300000000,A01A3A,5,1552378385000
1552378388625.0000000000,22,22.2700000000,A01A3A,5,1552378385000
1552378388640.6201171875,22,22.2800000000,A01A3A,5,1552378385000
1552378388656.2500000000,22,21.9300000000,A01A3A,5,1552378385000
1552378388671.8798828125,22,21.1600000000,A01A3A,5,1552378385000
1552378388687.5000000000,22,19.8100000000,A01A3A,5,1552378385000
1552378388703.1201171875,22,17.7200000000,A01A3A,5,1552378385000
1552378388718.7500000000,22,14.6700000000,A01A3A,5,1552378385000
1552378388734.3798828125,22,10.6300000000,A01A3A,5,1552378385000
1552378388750.0000000000,22,5.6800000000,A01A3A,5,1552378385000
1552378388765.6201171875,22,0.2000000000,A01A3A,5,1552378385000
1552378388781.2500000000,22,-5.3300000000,A01A3A,5,1552378385000
1552378388796.8798828125,22,-10.4100000000,A01A3A,5,1552378385000
1552378388812.5000000000,22,-14.7300000000,A01A3A,5,1552378385000
1552378388828.1201171875,22,-18.2600000000,A01A3A,5,1552378385000
1552378388843.7500000000,22,-21.2400000000,A01A3A,5,1552378385000
1552378388859.3798828125,22,-24.0000000000,A01A3A,5,1552378385000
1552378388875.0000000000,22,-26.7900000000,A01A3A,5,1552378385000
1552378388890.6201171875,22,-29.6200000000,A01A3A,5,1552378385000
1552378388906.2500000000,22,-32.1900000000,A01A3A,5,1552378385000
1552378388921.8798828125,22,-34.0100000000,A01A3A,5,1552378385000
1552378388937.5000000000,22,-34.6800000000,A01A3A,5,1552378385000
1552378388953.1201171875,22,-34.1100000000,A01A3A,5,1552378385000
1552378388968.7500000000,22,-32.6800000000,A01A3A,5,1552378385000
1552378388984.3798828125,22,-31.1200000000,A01A3A,5,1552378385000
1552378389000.0000000000,22,-30.2400000000,A01A3A,5,1552378385000
1552378389015.6201171875,22,-30.5700000000,A01A3A,5,1552378385000
1552378389031.2500000000,22,-32.0900000000,A01A3A,5,1552378385000
1552378389046.8798828125,22,-34.2300000000,A01A3A,5,1552378385000
1552378389062.5000000000,22,-36.1100000000,A01A3A,5,1552378385000
1552378389078.1201171875,22,-37.0400000000,A01A3A,5,1552378385000
1552378389093.7500000000,22,-36.7200000000,A01A3A,5,1552378385000
1552378389109.3798828125,22,-35.4700000000,A01A3A,5,1552378385000
1552378389125.0000000000,22,-34.0400000000,A01A3A,5,1552378385000
1552378389140.6201171875,22,-33.2300000000,A01A3A,5,1552378385000
1552378389156.2500000000,22,-33.6100000000,A01A3A,5,1552378385000
1552378389171.8798828125,22,-35.5600000000,A01A3A,5,1552378385000
1552378389187.5000000000,22,-39.2000000000,A01A3A,5,1552378385000
1552378389203.1201171875,22,-44.3400000000,A01A3A,5,1552378385000
1552378389218.7500000000,22,-50.0900000000,A01A3A,5,1552378385000
1552378389234.3798828125,22,-54.5700000000,A01A3A,5,1552378385000
1552378389250.0000000000,22,-55.1300000000,A01A3A,5,1552378385000
1552378389265.6201171875,22,-49.2900000000,A01A3A,5,1552378385000
1552378389281.2500000000,22,-35.9800000000,A01A3A,5,1552378385000
1552378389296.8798828125,22,-16.5300000000,A01A3A,5,1552378385000
1552378389312.5000000000,22,5.4300000000,A01A3A,5,1552378385000
1552378389328.1201171875,22,25.3300000000,A01A3A,5,1552378385000
1552378389343.7500000000,22,39.4400000000,A01A3A,5,1552378385000
1552378389359.3798828125,22,46.3900000000,A01A3A,5,1552378385000
1552378389375.0000000000,22,47.3400000000,A01A3A,5,1552378385000
1552378389390.6201171875,22,44.9500000000,A01A3A,5,1552378385000
1552378389406.2500000000,22,41.7000000000,A01A3A,5,1552378385000
1552378389421.8798828125,22,38.7800000000,A01A3A,5,1552378385000
1552378389437.5000000000,22,36.0400000000,A01A3A,5,1552378385000
1552378389453.1201171875,22,32.8600000000,A01A3A,5,1552378385000
1552378389468.7500000000,22,29.1400000000,A01A3A,5,1552378385000
1552378389484.3798828125,22,25.6800000000,A01A3A,5,1552378385000
1552378389500.0000000000,22,23.7900000000,A01A3A,5,1552378385000
1552378389515.6201171875,22,24.3100000000,A01A3A,5,1552378385000
1552378389531.2500000000,22,26.9700000000,A01A3A,5,1552378385000
1552378389546.8798828125,22,30.3600000000,A01A3A,5,1552378385000
1552378389562.5000000000,22,32.7200000000,A01A3A,5,1552378385000
1552378389578.1201171875,22,32.7100000000,A01A3A,5,1552378385000
1552378389593.7500000000,22,30.1900000000,A01A3A,5,1552378385000
1552378389609.3798828125,22,26.1400000000,A01A3A,5,1552378385000
1552378389625.0000000000,22,22.0500000000,A01A3A,5,1552378385000
1552378389640.6201171875,22,19.0900000000,A01A3A,5,1552378385000
1552378389656.2500000000,22,17.6200000000,A01A3A,5,1552378385000
1552378389671.8798828125,22,17.1000000000,A01A3A,5,1552378385000
1552378389687.5000000000,22,16.5100000000,A01A3A,5,1552378385000
1552378389703.1201171875,22,14.9600000000,A01A3A,5,1552378385000
1552378389718.7500000000,22,12.0700000000,A01A3A,5,1552378385000
1552378389734.3798828125,22,8.0400000000,A01A3A,5,1552378385000
1552378389750.0000000000,22,3.6400000000,A01A3A,5,1552378385000
1552378389765.6201171875,22,-0.4300000000,A01A3A,5,1552378385000
1552378389781.2500000000,22,-3.8200000000,A01A3A,5,1552378385000
1552378389796.8798828125,22,-6.4900000000,A01A3A,5,1552378385000
1552378389812.5000000000,22,-8.6600000000,A01A3A,5,1552378385000
1552378389828.1201171875,22,-10.5900000000,A01A3A,5,1552378385000
1552378389843.7500000000,22,-12.5000000000,A01A3A,5,1552378385000
1552378389859.3798828125,22,-14.5500000000,A01A3A,5,1552378385000
1552378389875.0000000000,22,-16.8700000000,A01A3A,5,1552378385000
1552378389890.6201171875,22,-19.4800000000,A01A3A,5,1552378385000
1552378389906.2500000000,22,-22.2800000000,A01A3A,5,1552378385000
1552378389921.8798828125,22,-25.0400000000,A01A3A,5,1552378385000
1552378389937.5000000000,22,-27.5100000000,A01A3A,5,1552378385000
1552378389953.1201171875,22,-29.6400000000,A01A3A,5,1552378385000
1552378389968.7500000000,22,-31.7200000000,A01A3A,5,1552378385000
1552378389984.3798828125,22,-34.3200000000,A01A3A,5,1552378385000
1552378390000.0000000000,22,-38.0400000000,A01A3A,5,1552378385000
1552378390015.6201171875,22,-43.0900000000,A01A3A,5,1552378385000
1552378390031.2500000000,22,-48.9600000000,A01A3A,5,1552378385000
1552378390046.8798828125,22,-54.4100000000,A01A3A,5,1552378385000
1552378390062.5000000000,22,-57.6400000000,A01A3A,5,1552378385000
1552378390078.1201171875,22,-56.9000000000,A01A3A,5,1552378385000
1552378390093.7500000000,22,-51.0300000000,A01A3A,5,1552378385000
1552378390109.3798828125,22,-40.0200000000,A01A3A,5,1552378385000
1552378390125.0000000000,22,-25.0200000000,A01A3A,5,1552378385000
1552378390140.6201171875,22,-8.1200000000,A01A3A,5,1552378385000
1552378390156.2500000000,22,8.2900000000,A01A3A,5,1552378385000
1552378390171.8798828125,22,22.1900000000,A01A3A,5,1552378385000
1552378390187.5000000000,22,32.3900000000,A01A3A,5,1552378385000
1552378390203.1201171875,22,38.7800000000,A01A3A,5,1552378385000
1552378390218.7500000000,22,42.0200000000,A01A3A,5,1552378385000
1552378390234.3798828125,22,43.1600000000,A01A3A,5,1552378385000
1552378390250.0000000000,22,43.1200000000,A01A3A,5,1552378385000
1552378390265.6201171875,22,42.4900000000,A01A3A,5,1552378385000
1552378390281.2500000000,22,41.4300000000,A01A3A,5,1552378385000
1552378390296.8798828125,22,39.9500000000,A01A3A,5,1552378385000
1552378390312.5000000000,22,38.1300000000,A01A3A,5,1552378385000
1552378390328.1201171875,22,36.2400000000,A01A3A,5,1552378385000
1552378390343.7500000000,22,34.6600000000,A01A3A,5,1552378385000
1552378390359.3798828125,22,33.7600000000,A01A3A,5,1552378385000
1552378390375.0000000000,22,33.7100000000,A01A3A,5,1552378385000
1552378390390.6201171875,22,34.3200000000,A01A3A,5,1552378385000
1552378390406.2500000000,22,35.2600000000,A01A3A,5,1552378385000
1552378390421.8798828125,22,36.1500000000,A01A3A,5,1552378385000
1552378390437.5000000000,22,36.7300000000,A01A3A,5,1552378385000
1552378390453.1201171875,22,36.9000000000,A01A3A,5,1552378385000
1552378390468.7500000000,22,36.6700000000,A01A3A,5,1552378385000
1552378390484.3798828125,22,36.0900000000,A01A3A,5,1552378385000
1552378390500.0000000000,22,35.1000000000,A01A3A,5,1552378385000
1552378390515.6201171875,22,33.6300000000,A01A3A,5,1552378385000
1552378390531.2500000000,22,31.5200000000,A01A3A,5,1552378385000
1552378390546.8798828125,22,28.6700000000,A01A3A,5,1552378385000
1552378390562.5000000000,22,25.0800000000,A01A3A,5,1552378385000
1552378390578.1201171875,22,20.8600000000,A01A3A,5,1552378385000
1552378390593.7500000000,22,16.2800000000,A01A3A,5,1552378385000
1552378390609.3798828125,22,11.6900000000,A01A3A,5,1552378385000
1552378390625.0000000000,22,7.4700000000,A01A3A,5,1552378385000
1552378390640.6201171875,22,3.8700000000,A01A3A,5,1552378385000
1552378390656.2500000000,22,0.9800000000,A01A3A,5,1552378385000
1552378390671.8798828125,22,-1.4000000000,A01A3A,5,1552378385000
1552378390687.5000000000,22,-3.6500000000,A01A3A,5,1552378385000
1552378390703.1201171875,22,-6.2100000000,A01A3A,5,1552378385000
1552378390718.7500000000,22,-9.3500000000,A01A3A,5,1552378385000
1552378390734.3798828125,22,-13.1400000000,A01A3A,5,1552378385000
1552378390750.0000000000,22,-17.2800000000,A01A3A,5,1552378385000
1552378390765.6201171875,22,-21.3400000000,A01A3A,5,1552378385000
1552378390781.2500000000,22,-24.8800000000,A01A3A,5,1552378385000
1552378390796.8798828125,22,-27.6800000000,A01A3A,5,1552378385000
1552378390812.5000000000,22,-29.8200000000,A01A3A,5,1552378385000
1552378390828.1201171875,22,-31.6300000000,A01A3A,5,1552378385000
1552378390843.7500000000,22,-33.6300000000,A01A3A,5,1552378385000
1552378390859.3798828125,22,-36.3800000000,A01A3A,5,1552378385000
1552378390875.0000000000,22,-40.3600000000,A01A3A,5,1552378385000
1552378390890.6201171875,22,-45.9100000000,A01A3A,5,1552378385000
1552378390906.2500000000,22,-52.9800000000,A01A3A,5,1552378385000
1552378390921.8798828125,22,-61.0800000000,A01A3A,5,1552378385000
1552378390937.5000000000,22,-69.0000000000,A01A3A,5,1552378385000
1552378390953.1201171875,22,-74.9800000000,A01A3A,5,1552378385000
1552378390968.7500000000,22,-77.0600000000,A01A3A,5,1552378385000
1552378390984.3798828125,22,-73.7100000000,A01A3A,5,1552378385000
1552378391000.0000000000,22,-64.4400000000,A01A3A,5,1552378385000
1552378391015.6201171875,22,-50.1400000000,A01A3A,5,1552378385000
1552378391031.2500000000,22,-32.8600000000,A01A3A,5,1552378385000
1552378391046.8798828125,22,-15.1500000000,A01A3A,5,1552378385000
1552378391062.5000000000,22,0.6900000000,A01A3A,5,1552378385000
1552378391078.1201171875,22,13.2700000000,A01A3A,5,1552378385000
1552378391093.7500000000,22,22.2400000000,A01A3A,5,1552378385000
1552378391109.3798828125,22,28.0700000000,A01A3A,5,1552378385000
1552378391125.0000000000,22,31.5900000000,A01A3A,5,1552378385000
1552378391140.6201171875,22,33.5900000000,A01A3A,5,1552378385000
1552378391156.2500000000,22,34.6000000000,A01A3A,5,1552378385000
1552378391171.8798828125,22,34.9200000000,A01A3A,5,1552378385000
1552378391187.5000000000,22,34.7500000000,A01A3A,5,1552378385000
1552378391203.1201171875,22,34.2700000000,A01A3A,5,1552378385000
1552378391218.7500000000,22,33.7200000000,A01A3A,5,1552378385000
1552378391234.3798828125,22,33.3700000000,A01A3A,5,1552378385000
1552378391250.0000000000,22,33.4600000000,A01A3A,5,1552378385000
1552378391265.6201171875,22,34.1100000000,A01A3A,5,1552378385000
1552378391281.2500000000,22,35.3300000000,A01A3A,5,1552378385000
1552378391296.8798828125,22,36.9300000000,A01A3A,5,1552378385000
1552378391312.5000000000,22,38.6600000000,A01A3A,5,1552378385000
1552378391328.1201171875,22,40.2500000000,A01A3A,5,1552378385000
1552378391343.7500000000,22,41.4600000000,A01A3A,5,1552378385000
1552378391359.3798828125,22,42.1400000000,A01A3A,5,1552378385000
1552378391375.0000000000,22,42.2000000000,A01A3A,5,1552378385000
1552378391390.6201171875,22,41.5300000000,A01A3A,5,1552378385000
1552378391406.2500000000,22,40.0400000000,A01A3A,5,1552378385000
1552378391421.8798828125,22,37.6100000000,A01A3A,5,1552378385000
1552378391437.5000000000,22,34.2200000000,A01A3A,5,1552378385000
1552378391453.1201171875,22,30.0400000000,A01A3A,5,1552378385000
1552378391468.7500000000,22,25.4000000000,A01A3A,5,1552378385000
1552378391484.3798828125,22,20.7100000000,A01A3A,5,1552378385000
1552378391500.0000000000,22,16.3200000000,A01A3A,5,1552378385000
1552378391515.6201171875,22,12.4300000000,A01A3A,5,1552378385000
1552378391531.2500000000,22,9.0700000000,A01A3A,5,1552378385000
1552378391546.8798828125,22,6.1000000000,A01A3A,5,1552378385000
1552378391562.5000000000,22,3.3400000000,A01A3A,5,1552378385000
1552378391578.1201171875,22,0.6600000000,A01A3A,5,1552378385000
1552378391593.7500000000,22,-2.0100000000,A01A3A,5,1552378385000
1552378391609.3798828125,22,-4.6400000000,A01A3A,5,1552378385000
1552378391625.0000000000,22,-7.1900000000,A01A3A,5,1552378385000
1552378391640.6201171875,22,-9.6000000000,A01A3A,5,1552378385000
1552378391656.2500000000,22,-11.9400000000,A01A3A,5,1552378385000
1552378391671.8798828125,22,-14.3300000000,A01A3A,5,1552378385000
1552378391687.5000000000,22,-16.9300000000,A01A3A,5,1552378385000
1552378391703.1201171875,22,-19.7900000000,A01A3A,5,1552378385000
1552378391718.7500000000,22,-22.8500000000,A01A3A,5,1552378385000
1552378391734.3798828125,22,-25.9400000000,A01A3A,5,1552378385000
1552378391750.0000000000,22,-28.8300000000,A01A3A,5,1552378385000
1552378391765.6201171875,22,-31.3500000000,A01A3A,5,1552378385000
1552378391781.2500000000,22,-33.5600000000,A01A3A,5,1552378385000
1552378391796.8798828125,22,-35.7800000000,A01A3A,5,1552378385000
1552378391812.5000000000,22,-38.5600000000,A01A3A,5,1552378385000
1552378391828.1201171875,22,-42.4900000000,A01A3A,5,1552378385000
1552378391843.7500000000,22,-48.0100000000,A01A3A,5,1552378385000
1552378391859.3798828125,22,-55.0500000000,A01A3A,5,1552378385000
1552378391875.0000000000,22,-62.8100000000,A01A3A,5,1552378385000
1552378391890.6201171875,22,-69.7900000000,A01A3A,5,1552378385000
1552378391906.2500000000,22,-73.9800000000,A01A3A,5,1552378385000
1552378391921.8798828125,22,-73.5100000000,A01A3A,5,1552378385000
1552378391937.5000000000,22,-67.1700000000,A01A3A,5,1552378385000
1552378391953.1201171875,22,-55.1600000000,A01A3A,5,1552378385000
1552378391968.7500000000,22,-39.0100000000,A01A3A,5,1552378385000
1552378391984.3798828125,22,-21.2800000000,A01A3A,5,1552378385000
1552378392000.0000000000,22,-4.6600000000,A01A3A,5,1552378385000
1552378392015.6201171875,22,8.8300000000,A01A3A,5,1552378385000
1552378392031.2500000000,22,18.3300000000,A01A3A,5,1552378385000
1552378392046.8798828125,22,24.1400000000,A01A3A,5,1552378385000
1552378392062.5000000000,22,27.1900000000,A01A3A,5,1552378385000
1552378392078.1201171875,22,28.5200000000,A01A3A,5,1552378385000
1552378392093.7500000000,22,28.8100000000,A01A3A,5,1552378385000
1552378392109.3798828125,22,28.3900000000,A01A3A,5,1552378385000
1552378392125.0000000000,22,27.3900000000,A01A3A,5,1552378385000
1552378392140.6201171875,22,25.9900000000,A01A3A,5,1552378385000
1552378392156.2500000000,22,24.5200000000,A01A3A,5,1552378385000
1552378392171.8798828125,22,23.4200000000,A01A3A,5,1552378385000
1552378392187.5000000000,22,23.0400000000,A01A3A,5,1552378385000
1552378392203.1201171875,22,23.5700000000,A01A3A,5,1552378385000
1552378392218.7500000000,22,24.9900000000,A01A3A,5,1552378385000
1552378392234.3798828125,22,27.1500000000,A01A3A,5,1552378385000
1552378392250.0000000000,22,29.8800000000,A01A3A,5,1552378385000
1552378392265.6201171875,22,33.0400000000,A01A3A,5,1552378385000
1552378392281.2500000000,22,36.3700000000,A01A3A,5,1552378385000
1552378392296.8798828125,22,39.5800000000,A01A3A,5,1552378385000
1552378392312.5000000000,22,42.2600000000,A01A3A,5,1552378385000
1552378392328.1201171875,22,44.0100000000,A01A3A,5,1552378385000
1552378392343.7500000000,22,44.5200000000,A01A3A,5,1552378385000
1552378392359.3798828125,22,43.6600000000,A01A3A,5,1552378385000
1552378392375.0000000000,22,41.4800000000,A01A3A,5,1552378385000
1552378392390.6201171875,22,38.2300000000,A01A3A,5,1552378385000
1552378392406.2500000000,22,34.2800000000,A01A3A,5,1552378385000
1552378392421.8798828125,22,30.0200000000,A01A3A,5,1552378385000
1552378392437.5000000000,22,25.8700000000,A01A3A,5,1552378385000
1552378392453.1201171875,22,22.0400000000,A01A3A,5,1552378385000
1552378392468.7500000000,22,18.5600000000,A01A3A,5,1552378385000
1552378392484.3798828125,22,15.2400000000,A01A3A,5,1552378385000
1552378392500.0000000000,22,11.7600000000,A01A3A,5,1552378385000
1552378392515.6201171875,22,7.8900000000,A01A3A,5,1552378385000
1552378392531.2500000000,22,3.6200000000,A01A3A,5,1552378385000
1552378392546.8798828125,22,-0.7700000000,A01A3A,5,1552378385000
1552378392562.5000000000,22,-4.7800000000,A01A3A,5,1552378385000
1552378392578.1201171875,22,-7.9400000000,A01A3A,5,1552378385000
1552378392593.7500000000,22,-10.0400000000,A01A3A,5,1552378385000
1552378392609.3798828125,22,-11.2200000000,A01A3A,5,1552378385000
1552378392625.0000000000,22,-11.9900000000,A01A3A,5,1552378385000
1552378392640.6201171875,22,-12.9500000000,A01A3A,5,1552378385000
1552378392656.2500000000,22,-14.6000000000,A01A3A,5,1552378385000
1552378392671.8798828125,22,-17.1500000000,A01A3A,5,1552378385000
1552378392687.5000000000,22,-20.4400000000,A01A3A,5,1552378385000
1552378392703.1201171875,22,-24.1000000000,A01A3A,5,1552378385000
1552378392718.7500000000,22,-27.6500000000,A01A3A,5,1552378385000
1552378392734.3798828125,22,-30.7700000000,A01A3A,5,1552378385000
1552378392750.0000000000,22,-33.3800000000,A01A3A,5,1552378385000
1552378392765.6201171875,22,-35.7400000000,A01A3A,5,1552378385000
1552378392781.2500000000,22,-38.4300000000,A01A3A,5,1552378385000
1552378392796.8798828125,22,-42.1100000000,A01A3A,5,1552378385000
1552378392812.5000000000,22,-47.3700000000,A01A3A,5,1552378385000
1552378392828.1201171875,22,-54.2900000000,A01A3A,5,1552378385000
1552378392843.7500000000,22,-62.2400000000,A01A3A,5,1552378385000
1552378392859.3798828125,22,-69.8000000000,A01A3A,5,1552378385000
1552378392875.0000000000,22,-75.0600000000,A01A3A,5,1552378385000
1552378392890.6201171875,22,-76.1000000000,A01A3A,5,1552378385000
1552378392906.2500000000,22,-71.6600000000,A01A3A,5,1552378385000
1552378392921.8798828125,22,-61.6900000000,A01A3A,5,1552378385000
1552378392937.5000000000,22,-47.3100000000,A01A3A,5,1552378385000
1552378392953.1201171875,22,-30.5100000000,A01A3A,5,1552378385000
1552378392968.7500000000,22,-13.5600000000,A01A3A,5,1552378385000
1552378392984.3798828125,22,1.6000000000,A01A3A,5,1552378385000
1552378393000.0000000000,22,13.7200000000,A01A3A,5,1552378385000
1552378393015.6201171875,22,22.2600000000,A01A3A,5,1552378385000
1552378393031.2500000000,22,27.2400000000,A01A3A,5,1552378385000
1552378393046.8798828125,22,29.0300000000,A01A3A,5,1552378385000
1552378393062.5000000000,22,28.2100000000,A01A3A,5,1552378385000
1552378393078.1201171875,22,25.4800000000,A01A3A,5,1552378385000
1552378393093.7500000000,22,21.6200000000,A01A3A,5,1552378385000
1552378393109.3798828125,22,17.5200000000,A01A3A,5,1552378385000
1552378393125.0000000000,22,14.1000000000,A01A3A,5,1552378385000
1552378393140.6201171875,22,12.2300000000,A01A3A,5,1552378385000
1552378393156.2500000000,22,12.6300000000,A01A3A,5,1552378385000
1552378393171.8798828125,22,15.6900000000,A01A3A,5,1552378385000
1552378393187.5000000000,22,21.3700000000,A01A3A,5,1552378385000
1552378393203.1201171875,22,29.1300000000,A01A3A,5,1552378385000
1552378393218.7500000000,22,38.0500000000,A01A3A,5,1552378385000
1552378393234.3798828125,22,46.9200000000,A01A3A,5,1552378385000
1552378393250.0000000000,22,54.5500000000,A01A3A,5,1552378385000
1552378393265.6201171875,22,59.9900000000,A01A3A,5,1552378385000
1552378393281.2500000000,22,62.6500000000,A01A3A,5,1552378385000
1552378393296.8798828125,22,62.3700000000,A01A3A,5,1552378385000
1552378393312.5000000000,22,59.3900000000,A01A3A,5,1552378385000
1552378393328.1201171875,22,54.2600000000,A01A3A,5,1552378385000
1552378393343.7500000000,22,47.6500000000,A01A3A,5,1552378385000
1552378393359.3798828125,22,40.2900000000,A01A3A,5,1552378385000
1552378393375.0000000000,22,32.7200000000,A01A3A,5,1552378385000
1552378393390.6201171875,22,25.3100000000,A01A3A,5,1552378385000
1552378393406.2500000000,22,18.2000000000,A01A3A,5,1552378385000
1552378393421.8798828125,22,11.4600000000,A01A3A,5,1552378385000
1552378393437.5000000000,22,5.2200000000,A01A3A,5,1552378385000
1552378393453.1201171875,22,-0.3300000000,A01A3A,5,1552378385000
1552378393468.7500000000,22,-4.9000000000,A01A3A,5,1552378385000
1552378393484.3798828125,22,-8.3400000000,A01A3A,5,1552378385000
1552378393500.0000000000,22,-10.6900000000,A01A3A,5,1552378385000
1552378393515.6201171875,22,-12.3000000000,A01A3A,5,1552378385000
1552378393531.2500000000,22,-13.7000000000,A01A3A,5,1552378385000
1552378393546.8798828125,22,-15.4300000000,A01A3A,5,1552378385000
1552378393562.5000000000,22,-17.8900000000,A01A3A,5,1552378385000
1552378393578.1201171875,22,-21.1000000000,A01A3A,5,1552378385000
1552378393593.7500000000,22,-24.8500000000,A01A3A,5,1552378385000
1552378393609.3798828125,22,-28.7000000000,A01A3A,5,1552378385000
1552378393625.0000000000,22,-32.3000000000,A01A3A,5,1552378385000
1552378393640.6201171875,22,-35.5000000000,A01A3A,5,1552378385000
1552378393656.2500000000,22,-38.4800000000,A01A3A,5,1552378385000
1552378393671.8798828125,22,-41.6300000000,A01A3A,5,1552378385000
1552378393687.5000000000,22,-45.4500000000,A01A3A,5,1552378385000
1552378393703.1201171875,22,-50.3500000000,A01A3A,5,1552378385000
1552378393718.7500000000,22,-56.5800000000,A01A3A,5,1552378385000
1552378393734.3798828125,22,-64.0700000000,A01A3A,5,1552378385000
1552378393750.0000000000,22,-72.2800000000,A01A3A,5,1552378385000
1552378393765.6201171875,22,-80.0700000000,A01A3A,5,1552378385000
1552378393781.2500000000,22,-85.6900000000,A01A3A,5,1552378385000
1552378393796.8798828125,22,-87.0600000000,A01A3A,5,1552378385000
1552378393812.5000000000,22,-82.3200000000,A01A3A,5,1552378385000
1552378393828.1201171875,22,-70.5400000000,A01A3A,5,1552378385000
1552378393843.7500000000,22,-52.1800000000,A01A3A,5,1552378385000
1552378393859.3798828125,22,-29.1700000000,A01A3A,5,1552378385000
1552378393875.0000000000,22,-4.3900000000,A01A3A,5,1552378385000
1552378393890.6201171875,22,19.0700000000,A01A3A,5,1552378385000
1552378393906.2500000000,22,38.8100000000,A01A3A,5,1552378385000
1552378393921.8798828125,22,53.4700000000,A01A3A,5,1552378385000
1552378393937.5000000000,22,62.8500000000,A01A3A,5,1552378385000
1552378393953.1201171875,22,67.5600000000,A01A3A,5,1552378385000
1552378393968.7500000000,22,68.5200000000,A01A3A,5,1552378385000
1552378393984.3798828125,22,66.6800000000,A01A3A,5,1552378385000
1552378394000.0000000000,22,62.8600000000,A01A3A,5,1552378385000
1552378394015.6201171875,22,57.7600000000,A01A3A,5,1552378385000
1552378394031.2500000000,22,52.0400000000,A01A3A,5,1552378385000
1552378394046.8798828125,22,46.3300000000,A01A3A,5,1552378385000
1552378394062.5000000000,22,41.2500000000,A01A3A,5,1552378385000
1552378394078.1201171875,22,37.2500000000,A01A3A,5,1552378385000
1552378394093.7500000000,22,34.5900000000,A01A3A,5,1552378385000
1552378394109.3798828125,22,33.2200000000,A01A3A,5,1552378385000
1552378394125.0000000000,22,32.7900000000,A01A3A,5,1552378385000
1552378394140.6201171875,22,32.8200000000,A01A3A,5,1552378385000
1552378394156.2500000000,22,32.8600000000,A01A3A,5,1552378385000
1552378394171.8798828125,22,32.6200000000,A01A3A,5,1552378385000
1552378394187.5000000000,22,32.0800000000,A01A3A,5,1552378385000
1552378394203.1201171875,22,31.3600000000,A01A3A,5,1552378385000
1552378394218.7500000000,22,30.6100000000,A01A3A,5,1552378385000
1552378394234.3798828125,22,29.8500000000,A01A3A,5,1552378385000
1552378394250.0000000000,22,28.8700000000,A01A3A,5,1552378385000
1552378394265.6201171875,22,27.3600000000,A01A3A,5,1552378385000
1552378394281.2500000000,22,24.9800000000,A01A3A,5,1552378385000
1552378394296.8798828125,22,21.5800000000,A01A3A,5,1552378385000
1552378394312.5000000000,22,17.2900000000,A01A3A,5,1552378385000
1552378394328.1201171875,22,12.4700000000,A01A3A,5,1552378385000
1552378394343.7500000000,22,7.6400000000,A01A3A,5,1552378385000
1552378394359.3798828125,22,3.2700000000,A01A3A,5,1552378385000
1552378394375.0000000000,22,-0.3100000000,A01A3A,5,1552378385000
1552378394390.6201171875,22,-3.0700000000,A01A3A,5,1552378385000
1552378394406.2500000000,22,-5.2700000000,A01A3A,5,1552378385000
1552378394421.8798828125,22,-7.3400000000,A01A3A,5,1552378385000
1552378394437.5000000000,22,-9.7600000000,A01A3A,5,1552378385000
1552378394453.1201171875,22,-12.7600000000,A01A3A,5,1552378385000
1552378394468.7500000000,22,-16.3700000000,A01A3A,5,1552378385000
1552378394484.3798828125,22,-20.3700000000,A01A3A,5,1552378385000
1552378394500.0000000000,22,-24.4300000000,A01A3A,5,1552378385000
1552378394515.6201171875,22,-28.2400000000,A01A3A,5,1552378385000
1552378394531.2500000000,22,-31.6500000000,A01A3A,5,1552378385000
1552378394546.8798828125,22,-34.5700000000,A01A3A,5,1552378385000
1552378394562.5000000000,22,-37.0200000000,A01A3A,5,1552378385000
1552378394578.1201171875,22,-39.1000000000,A01A3A,5,1552378385000
1552378394593.7500000000,22,-41.0600000000,A01A3A,5,1552378385000
1552378394609.3798828125,22,-43.3500000000,A01A3A,5,1552378385000
1552378394625.0000000000,22,-46.6200000000,A01A3A,5,1552378385000
1552378394640.6201171875,22,-51.5100000000,A01A3A,5,1552378385000
1552378394656.2500000000,22,-58.2100000000,A01A3A,5,1552378385000
1552378394671.8798828125,22,-66.1500000000,A01A3A,5,1552378385000
1552378394687.5000000000,22,-73.8000000000,A01A3A,5,1552378385000
1552378394703.1201171875,22,-78.9800000000,A01A3A,5,1552378385000
1552378394718.7500000000,22,-79.5300000000,A01A3A,5,1552378385000
1552378394734.3798828125,22,-74.1000000000,A01A3A,5,1552378385000
1552378394750.0000000000,22,-62.7200000000,A01A3A,5,1552378385000
1552378394765.6201171875,22,-46.9000000000,A01A3A,5,1552378385000
1552378394781.2500000000,22,-29.0800000000,A01A3A,5,1552378385000
1552378394796.8798828125,22,-11.9100000000,A01A3A,5,1552378385000
1552378394812.5000000000,22,2.5900000000,A01A3A,5,1552378385000
1552378394828.1201171875,22,13.4100000000,A01A3A,5,1552378385000
1552378394843.7500000000,22,20.5500000000,A01A3A,5,1552378385000
1552378394859.3798828125,22,24.6600000000,A01A3A,5,1552378385000
1552378394875.0000000000,22,26.5600000000,A01A3A,5,1552378385000
1552378394890.6201171875,22,26.9300000000,A01A3A,5,1552378385000
1552378394906.2500000000,22,26.2400000000,A01A3A,5,1552378385000
1552378394921.8798828125,22,24.8300000000,A01A3A,5,1552378385000
1552378394937.5000000000,22,23.0500000000,A01A3A,5,1552378385000
1552378394953.1201171875,22,21.3200000000,A01A3A,5,1552378385000
1552378394968.7500000000,22,20.0700000000,A01A3A,5,1552378385000
1552378394984.3798828125,22,19.6500000000,A01A3A,5,1552378385000
1552378395000.0000000000,22,20.1900000000,A01A3A,5,1552378385000
1552378395015.6201171875,22,21.5900000000,A01A3A,5,1552378385000
1552378395031.2500000000,22,23.5600000000,A01A3A,5,1552378385000
1552378395046.8798828125,22,25.8100000000,A01A3A,5,1552378385000
1552378395062.5000000000,22,28.1100000000,A01A3A,5,1552378385000
1552378395078.1201171875,22,30.4300000000,A01A3A,5,1552378385000
1552378395093.7500000000,22,32.8000000000,A01A3A,5,1552378385000
1552378395109.3798828125,22,35.2700000000,A01A3A,5,1552378385000
1552378395125.0000000000,22,37.7000000000,A01A3A,5,1552378385000
1552378395140.6201171875,22,39.7600000000,A01A3A,5,1552378385000
1552378395156.2500000000,22,41.0000000000,A01A3A,5,1552378385000
1552378395171.8798828125,22,41.0100000000,A01A3A,5,1552378385000
1552378395187.5000000000,22,39.5900000000,A01A3A,5,1552378385000
1552378395203.1201171875,22,36.8800000000,A01A3A,5,1552378385000
1552378395218.7500000000,22,33.2700000000,A01A3A,5,1552378385000
1552378395234.3798828125,22,29.2700000000,A01A3A,5,1552378385000
1552378395250.0000000000,22,25.2800000000,A01A3A,5,1552378385000
1552378395265.6201171875,22,21.4400000000,A01A3A,5,1552378385000
1552378395281.2500000000,22,17.6900000000,A01A3A,5,1552378385000
1552378395296.8798828125,22,13.8700000000,A01A3A,5,1552378385000
1552378395312.5000000000,22,9.8700000000,A01A3A,5,1552378385000
1552378395328.1201171875,22,5.7900000000,A01A3A,5,1552378385000
1552378395343.7500000000,22,1.8500000000,A01A3A,5,1552378385000
1552378395359.3798828125,22,-1.6600000000,A01A3A,5,1552378385000
1552378395375.0000000000,22,-4.6000000000,A01A3A,5,1552378385000
1552378395390.6201171875,22,-7.0400000000,A01A3A,5,1552378385000
1552378395406.2500000000,22,-9.2600000000,A01A3A,5,1552378385000
1552378395421.8798828125,22,-11.6500000000,A01A3A,5,1552378385000
1552378395437.5000000000,22,-14.4900000000,A01A3A,5,1552378385000
1552378395453.1201171875,22,-17.9200000000,A01A3A,5,1552378385000
1552378395468.7500000000,22,-21.8200000000,A01A3A,5,1552378385000
1552378395484.3798828125,22,-25.9100000000,A01A3A,5,1552378385000
1552378395500.0000000000,22,-29.9500000000,A01A3A,5,1552378385000
1552378395515.6201171875,22,-33.7700000000,A01A3A,5,1552378385000
1552378395531.2500000000,22,-37.4300000000,A01A3A,5,1552378385000
1552378395546.8798828125,22,-41.2300000000,A01A3A,5,1552378385000
1552378395562.5000000000,22,-45.5900000000,A01A3A,5,1552378385000
1552378395578.1201171875,22,-50.9900000000,A01A3A,5,1552378385000
1552378395593.7500000000,22,-57.7300000000,A01A3A,5,1552378385000
1552378395609.3798828125,22,-65.8400000000,A01A3A,5,1552378385000
1552378395625.0000000000,22,-74.8500000000,A01A3A,5,1552378385000
1552378395640.6201171875,22,-83.6300000000,A01A3A,5,1552378385000
1552378395656.2500000000,22,-90.4900000000,A01A3A,5,1552378385000
1552378395671.8798828125,22,-93.4700000000,A01A3A,5,1552378385000
1552378395687.5000000000,22,-90.9000000000,A01A3A,5,1552378385000
1552378395703.1201171875,22,-82.0200000000,A01A3A,5,1552378385000
1552378395718.7500000000,22,-67.4000000000,A01A3A,5,1552378385000
1552378395734.3798828125,22,-48.9200000000,A01A3A,5,1552378385000
1552378395750.0000000000,22,-29.2100000000,A01A3A,5,1552378385000
1552378395765.6201171875,22,-10.9400000000,A01A3A,5,1552378385000
1552378395781.2500000000,22,4.0000000000,A01A3A,5,1552378385000
1552378395796.8798828125,22,14.8000000000,A01A3A,5,1552378385000
1552378395812.5000000000,22,21.7400000000,A01A3A,5,1552378385000
1552378395828.1201171875,22,25.7100000000,A01A3A,5,1552378385000
1552378395843.7500000000,22,27.7800000000,A01A3A,5,1552378385000
1552378395859.3798828125,22,28.8300000000,A01A3A,5,1552378385000
1552378395875.0000000000,22,29.4000000000,A01A3A,5,1552378385000
1552378395890.6201171875,22,29.7300000000,A01A3A,5,1552378385000
1552378395906.2500000000,22,29.9100000000,A01A3A,5,1552378385000
1552378395921.8798828125,22,30.0000000000,A01A3A,5,1552378385000
1552378395937.5000000000,22,30.1100000000,A01A3A,5,1552378385000
1552378395953.1201171875,22,30.4900000000,A01A3A,5,1552378385000
1552378395968.7500000000,22,31.4000000000,A01A3A,5,1552378385000
1552378395984.3798828125,22,33.1300000000,A01A3A,5,1552378385000
1552378396000.0000000000,22,35.7300000000,A01A3A,5,1552378385000
1552378396015.6201171875,22,39.0600000000,A01A3A,5,1552378385000
1552378396031.2500000000,22,42.6700000000,A01A3A,5,1552378385000
1552378396046.8798828125,22,46.0200000000,A01A3A,5,1552378385000
1552378396062.5000000000,22,48.5700000000,A01A3A,5,1552378385000
1552378396078.1201171875,22,50.0200000000,A01A3A,5,1552378385000
1552378396093.7500000000,22,50.2600000000,A01A3A,5,1552378385000
1552378396109.3798828125,22,49.3900000000,A01A3A,5,1552378385000
1552378396125.0000000000,22,47.5600000000,A01A3A,5,1552378385000
1552378396140.6201171875,22,44.8800000000,A01A3A,5,1552378385000
1552378396156.2500000000,22,41.5000000000,A01A3A,5,1552378385000
1552378396171.8798828125,22,37.5200000000,A01A3A,5,1552378385000
1552378396187.5000000000,22,33.2000000000,A01A3A,5,1552378385000
1552378396203.1201171875,22,28.7600000000,A01A3A,5,1552378385000
1552378396218.7500000000,22,24.4300000000,A01A3A,5,1552378385000
1552378396234.3798828125,22,20.2900000000,A01A3A,5,1552378385000
1552378396250.0000000000,22,16.3100000000,A01A3A,5,1552378385000
1552378396265.6201171875,22,12.3600000000,A01A3A,5,1552378385000
1552378396281.2500000000,22,8.4100000000,A01A3A,5,1552378385000
1552378396296.8798828125,22,4.5300000000,A01A3A,5,1552378385000
1552378396312.5000000000,22,0.9100000000,A01A3A,5,1552378385000
1552378396328.1201171875,22,-2.2900000000,A01A3A,5,1552378385000
1552378396343.7500000000,22,-5.0600000000,A01A3A,5,1552378385000
1552378396359.3798828125,22,-7.5100000000,A01A3A,5,1552378385000
1552378396375.0000000000,22,-9.9000000000,A01A3A,5,1552378385000
1552378396390.6201171875,22,-12.4800000000,A01A3A,5,1552378385000
1552378396406.2500000000,22,-15.3200000000,A01A3A,5,1552378385000
1552378396421.8798828125,22,-18.3800000000,A01A3A,5,1552378385000
1552378396437.5000000000,22,-21.5600000000,A01A3A,5,1552378385000
1552378396453.1201171875,22,-24.8200000000,A01A3A,5,1552378385000
1552378396468.7500000000,22,-28.2800000000,A01A3A,5,1552378385000
1552378396484.3798828125,22,-32.2200000000,A01A3A,5,1552378385000
1552378396500.0000000000,22,-36.9900000000,A01A3A,5,1552378385000
1552378396515.6201171875,22,-42.9100000000,A01A3A,5,1552378385000
1552378396531.2500000000,22,-50.0300000000,A01A3A,5,1552378385000
1552378396546.8798828125,22,-58.0800000000,A01A3A,5,1552378385000
1552378396562.5000000000,22,-66.2000000000,A01A3A,5,1552378385000
1552378396578.1201171875,22,-73.0800000000,A01A3A,5,1552378385000
1552378396593.7500000000,22,-77.0200000000,A01A3A,5,1552378385000
1552378396609.3798828125,22,-76.4700000000,A01A3A,5,1552378385000
1552378396625.0000000000,22,-70.5000000000,A01A3A,5,1552378385000
1552378396640.6201171875,22,-59.2800000000,A01A3A,5,1552378385000
1552378396656.2500000000,22,-44.1100000000,A01A3A,5,1552378385000
1552378396671.8798828125,22,-27.1000000000,A01A3A,5,1552378385000
1552378396687.5000000000,22,-10.5400000000,A01A3A,5,1552378385000
1552378396703.1201171875,22,3.7900000000,A01A3A,5,1552378385000
1552378396718.7500000000,22,14.9600000000,A01A3A,5,1552378385000
1552378396734.3798828125,22,22.8800000000,A01A3A,5,1552378385000
1552378396750.0000000000,22,27.9600000000,A01A3A,5,1552378385000
1552378396765.6201171875,22,30.7600000000,A01A3A,5,1552378385000
1552378396781.2500000000,22,31.7200000000,A01A3A,5,1552378385000
1552378396796.8798828125,22,31.1900000000,A01A3A,5,1552378385000
1552378396812.5000000000,22,29.5200000000,A01A3A,5,1552378385000
1552378396828.1201171875,22,27.2400000000,A01A3A,5,1552378385000
1552378396843.7500000000,22,24.9600000000,A01A3A,5,1552378385000
1552378396859.3798828125,22,23.2600000000,A01A3A,5,1552378385000
1552378396875.0000000000,22,22.5200000000,A01A3A,5,1552378385000
1552378396890.6201171875,22,22.8300000000,A01A3A,5,1552378385000
1552378396906.2500000000,22,24.0700000000,A01A3A,5,1552378385000
1552378396921.8798828125,22,25.9500000000,A01A3A,5,1552378385000
1552378396937.5000000000,22,28.1200000000,A01A3A,5,1552378385000
1552378396953.1201171875,22,30.3300000000,A01A3A,5,1552378385000
1552378396968.7500000000,22,32.3400000000,A01A3A,5,1552378385000
1552378396984.3798828125,22,34.0000000000,A01A3A,5,1552378385000
1552378397000.0000000000,22,35.1700000000,A01A3A,5,1552378385000
1552378397015.6201171875,22,35.7200000000,A01A3A,5,1552378385000
1552378397031.2500000000,22,35.5400000000,A01A3A,5,1552378385000
1552378397046.8798828125,22,34.4800000000,A01A3A,5,1552378385000
1552378397062.5000000000,22,32.3900000000,A01A3A,5,1552378385000
1552378397078.1201171875,22,29.2300000000,A01A3A,5,1552378385000
1552378397093.7500000000,22,25.1700000000,A01A3A,5,1552378385000
1552378397109.3798828125,22,20.5800000000,A01A3A,5,1552378385000
1552378397125.0000000000,22,15.9600000000,A01A3A,5,1552378385000
1552378397140.6201171875,22,11.7600000000,A01A3A,5,1552378385000
1552378397156.2500000000,22,8.1600000000,A01A3A,5,1552378385000
1552378397171.8798828125,22,5.0600000000,A01A3A,5,1552378385000
1552378397187.5000000000,22,2.1000000000,A01A3A,5,1552378385000
1552378397203.1201171875,22,-1.0700000000,A01A3A,5,1552378385000
1552378397218.7500000000,22,-4.6400000000,A01A3A,5,1552378385000
1552378397234.3798828125,22,-8.5300000000,A01A3A,5,1552378385000
1552378397250.0000000000,22,-12.4800000000,A01A3A,5,1552378385000
1552378397265.6201171875,22,-16.1900000000,A01A3A,5,1552378385000
1552378397281.2500000000,22,-19.4500000000,A01A3A,5,1552378385000
1552378397296.8798828125,22,-22.3200000000,A01A3A,5,1552378385000
1552378397312.5000000000,22,-25.0400000000,A01A3A,5,1552378385000
1552378397328.1201171875,22,-28.0800000000,A01A3A,5,1552378385000
1552378397343.7500000000,22,-31.9400000000,A01A3A,5,1552378385000
1552378397359.3798828125,22,-37.1000000000,A01A3A,5,1552378385000
1552378397375.0000000000,22,-43.7400000000,A01A3A,5,1552378385000
1552378397390.6201171875,22,-51.5200000000,A01A3A,5,1552378385000
1552378397406.2500000000,22,-59.3700000000,A01A3A,5,1552378385000
1552378397421.8798828125,22,-65.6200000000,A01A3A,5,1552378385000
1552378397437.5000000000,22,-68.3900000000,A01A3A,5,1552378385000
1552378397453.1201171875,22,-66.1600000000,A01A3A,5,1552378385000
1552378397468.7500000000,22,-58.3900000000,A01A3A,5,1552378385000
1552378397484.3798828125,22,-45.8000000000,A01A3A,5,1552378385000
1552378397500.0000000000,22,-30.2400000000,A01A3A,5,1552378385000
1552378397515.6201171875,22,-14.0200000000,A01A3A,5,1552378385000
1552378397531.2500000000,22,0.7100000000,A01A3A,5,1552378385000
1552378397546.8798828125,22,12.5500000000,A01A3A,5,1552378385000
1552378397562.5000000000,22,21.0500000000,A01A3A,5,1552378385000
1552378397578.1201171875,22,26.4800000000,A01A3A,5,1552378385000
1552378397593.7500000000,22,29.4200000000,A01A3A,5,1552378385000
1552378397609.3798828125,22,30.4700000000,A01A3A,5,1552378385000
1552378397625.0000000000,22,30.0400000000,A01A3A,5,1552378385000
1552378397640.6201171875,22,28.4200000000,A01A3A,5,1552378385000
1552378397656.2500000000,22,25.9600000000,A01A3A,5,1552378385000
1552378397671.8798828125,22,23.1800000000,A01A3A,5,1552378385000
1552378397687.5000000000,22,20.7000000000,A01A3A,5,1552378385000
1552378397703.1201171875,22,19.1400000000,A01A3A,5,1552378385000
1552378397718.7500000000,22,18.8100000000,A01A3A,5,1552378385000
1552378397734.3798828125,22,19.6900000000,A01A3A,5,1552378385000
1552378397750.0000000000,22,21.4700000000,A01A3A,5,1552378385000
1552378397765.6201171875,22,23.6600000000,A01A3A,5,1552378385000
1552378397781.2500000000,22,25.9000000000,A01A3A,5,1552378385000
1552378397796.8798828125,22,28.0200000000,A01A3A,5,1552378385000
1552378397812.5000000000,22,29.9900000000,A01A3A,5,1552378385000
1552378397828.1201171875,22,31.8300000000,A01A3A,5,1552378385000
1552378397843.7500000000,22,33.4400000000,A01A3A,5,1552378385000
1552378397859.3798828125,22,34.4800000000,A01A3A,5,1552378385000
1552378397875.0000000000,22,34.4700000000,A01A3A,5,1552378385000
1552378397890.6201171875,22,33.0200000000,A01A3A,5,1552378385000
1552378397906.2500000000,22,30.0000000000,A01A3A,5,1552378385000
1552378397921.8798828125,22,25.6900000000,A01A3A,5,1552378385000
1552378397937.5000000000,22,20.6500000000,A01A3A,5,1552378385000
1552378397953.1201171875,22,15.5800000000,A01A3A,5,1552378385000
1552378397968.7500000000,22,10.9600000000,A01A3A,5,1552378385000
1552378397984.3798828125,22,6.9900000000,A01A3A,5,1552378385000
1552378398000.0000000000,22,3.4600000000,A01A3A,5,1552378385000
1552378398015.6201171875,22,-0.0100000000,A01A3A,5,1552378385000
1552378398031.2500000000,22,-3.7600000000,A01A3A,5,1552378385000
1552378398046.8798828125,22,-7.9600000000,A01A3A,5,1552378385000
1552378398062.5000000000,22,-12.4700000000,A01A3A,5,1552378385000
1552378398078.1201171875,22,-16.9700000000,A01A3A,5,1552378385000
1552378398093.7500000000,22,-21.1400000000,A01A3A,5,1552378385000
1552378398109.3798828125,22,-24.8000000000,A01A3A,5,1552378385000
1552378398125.0000000000,22,-28.0200000000,A01A3A,5,1552378385000
1552378398140.6201171875,22,-31.1700000000,A01A3A,5,1552378385000
1552378398156.2500000000,22,-34.7800000000,A01A3A,5,1552378385000
1552378398171.8798828125,22,-39.4300000000,A01A3A,5,1552378385000
1552378398187.5000000000,22,-45.5000000000,A01A3A,5,1552378385000
1552378398203.1201171875,22,-52.8900000000,A01A3A,5,1552378385000
1552378398218.7500000000,22,-60.7900000000,A01A3A,5,1552378385000
1552378398234.3798828125,22,-67.7600000000,A01A3A,5,1552378385000
1552378398250.0000000000,22,-71.9600000000,A01A3A,5,1552378385000
1552378398265.6201171875,22,-71.6800000000,A01A3A,5,1552378385000
1552378398281.2500000000,22,-65.9800000000,A01A3A,5,1552378385000
1552378398296.8798828125,22,-55.0300000000,A01A3A,5,1552378385000
1552378398312.5000000000,22,-40.1300000000,A01A3A,5,1552378385000
1552378398328.1201171875,22,-23.3600000000,A01A3A,5,1552378385000
1552378398343.7500000000,22,-6.9800000000,A01A3A,5,1552378385000
1552378398359.3798828125,22,7.2200000000,A01A3A,5,1552378385000
1552378398375.0000000000,22,18.2100000000,A01A3A,5,1552378385000
1552378398390.6201171875,22,25.8400000000,A01A3A,5,1552378385000
1552378398406.2500000000,22,30.5800000000,A01A3A,5,1552378385000
1552378398421.8798828125,22,33.1900000000,A01A3A,5,1552378385000
1552378398437.5000000000,22,34.4000000000,A01A3A,5,1552378385000
1552378398453.1201171875,22,34.7100000000,A01A3A,5,1552378385000
1552378398468.7500000000,22,34.3700000000,A01A3A,5,1552378385000
1552378398484.3798828125,22,33.5500000000,A01A3A,5,1552378385000
1552378398500.0000000000,22,32.4200000000,A01A3A,5,1552378385000
1552378398515.6201171875,22,31.2900000000,A01A3A,5,1552378385000
1552378398531.2500000000,22,30.6300000000,A01A3A,5,1552378385000
1552378398546.8798828125,22,30.8100000000,A01A3A,5,1552378385000
1552378398562.5000000000,22,32.0500000000,A01A3A,5,1552378385000
1552378398578.1201171875,22,34.2300000000,A01A3A,5,1552378385000
1552378398593.7500000000,22,36.9700000000,A01A3A,5,1552378385000
1552378398609.3798828125,22,39.7500000000,A01A3A,5,1552378385000
1552378398625.0000000000,22,42.1100000000,A01A3A,5,1552378385000
1552378398640.6201171875,22,43.7400000000,A01A3A,5,1552378385000
1552378398656.2500000000,22,44.5600000000,A01A3A,5,1552378385000
1552378398671.8798828125,22,44.5700000000,A01A3A,5,1552378385000
1552378398687.5000000000,22,43.8300000000,A01A3A,5,1552378385000
1552378398703.1201171875,22,42.3200000000,A01A3A,5,1552378385000
1552378398718.7500000000,22,39.9400000000,A01A3A,5,1552378385000
1552378398734.3798828125,22,36.5900000000,A01A3A,5,1552378385000
1552378398750.0000000000,22,32.1800000000,A01A3A,5,1552378385000
1552378398765.6201171875,22,26.8000000000,A01A3A,5,1552378385000
1552378398781.2500000000,22,20.7400000000,A01A3A,5,1552378385000
1552378398796.8798828125,22,14.4500000000,A01A3A,5,1552378385000
1552378398812.5000000000,22,8.5500000000,A01A3A,5,1552378385000
1552378398828.1201171875,22,3.5500000000,A01A3A,5,1552378385000
1552378398843.7500000000,22,-0.2500000000,A01A3A,5,1552378385000
1552378398859.3798828125,22,-2.9200000000,A01A3A,5,1552378385000
1552378398875.0000000000,22,-4.8700000000,A01A3A,5,1552378385000
1552378398890.6201171875,22,-6.6700000000,A01A3A,5,1552378385000
1552378398906.2500000000,22,-8.8800000000,A01A3A,5,1552378385000
1552378398921.8798828125,22,-11.8000000000,A01A3A,5,1552378385000
1552378398937.5000000000,22,-15.4100000000,A01A3A,5,1552378385000
1552378398953.1201171875,22,-19.3800000000,A01A3A,5,1552378385000
1552378398968.7500000000,22,-23.2700000000,A01A3A,5,1552378385000
1552378398984.3798828125,22,-26.7200000000,A01A3A,5,1552378385000
1552378399000.0000000000,22,-29.6400000000,A01A3A,5,1552378385000
1552378399015.6201171875,22,-32.2300000000,A01A3A,5,1552378385000
1552378399031.2500000000,22,-35.0100000000,A01A3A,5,1552378385000
1552378399046.8798828125,22,-38.6200000000,A01A3A,5,1552378385000
1552378399062.5000000000,22,-43.6800000000,A01A3A,5,1552378385000
1552378399078.1201171875,22,-50.5000000000,A01A3A,5,1552378385000
1552378399093.7500000000,22,-58.8500000000,A01A3A,5,1552378385000
1552378399109.3798828125,22,-67.8000000000,A01A3A,5,1552378385000
1552378399125.0000000000,22,-75.7100000000,A01A3A,5,1552378385000
1552378399140.6201171875,22,-80.6000000000,A01A3A,5,1552378385000
1552378399156.2500000000,22,-80.6300000000,A01A3A,5,1552378385000
1552378399171.8798828125,22,-74.7700000000,A01A3A,5,1552378385000
1552378399187.5000000000,22,-63.1600000000,A01A3A,5,1552378385000
1552378399203.1201171875,22,-47.2100000000,A01A3A,5,1552378385000
1552378399218.7500000000,22,-29.1700000000,A01A3A,5,1552378385000
1552378399234.3798828125,22,-11.4800000000,A01A3A,5,1552378385000
1552378399250.0000000000,22,3.8700000000,A01A3A,5,1552378385000
1552378399265.6201171875,22,15.7600000000,A01A3A,5,1552378385000
1552378399281.2500000000,22,23.9900000000,A01A3A,5,1552378385000
1552378399296.8798828125,22,29.0500000000,A01A3A,5,1552378385000
1552378399312.5000000000,22,31.7400000000,A01A3A,5,1552378385000
1552378399328.1201171875,22,32.9100000000,A01A3A,5,1552378385000
1552378399343.7500000000,22,33.3100000000,A01A3A,5,1552378385000
1552378399359.3798828125,22,33.5200000000,A01A3A,5,1552378385000
1552378399375.0000000000,22,33.9100000000,A01A3A,5,1552378385000
1552378399390.6201171875,22,34.6200000000,A01A3A,5,1552378385000
1552378399406.2500000000,22,35.6200000000,A01A3A,5,1552378385000
1552378399421.8798828125,22,36.8200000000,A01A3A,5,1552378385000
1552378399437.5000000000,22,38.1300000000,A01A3A,5,1552378385000
1552378399453.1201171875,22,39.5400000000,A01A3A,5,1552378385000
1552378399468.7500000000,22,41.1000000000,A01A3A,5,1552378385000
1552378399484.3798828125,22,42.7700000000,A01A3A,5,1552378385000
1552378399500.0000000000,22,44.3700000000,A01A3A,5,1552378385000
1552378399515.6201171875,22,45.5400000000,A01A3A,5,1552378385000
1552378399531.2500000000,22,45.9400000000,A01A3A,5,1552378385000
1552378399546.8798828125,22,45.3800000000,A01A3A,5,1552378385000
1552378399562.5000000000,22,43.9900000000,A01A3A,5,1552378385000
1552378399578.1201171875,22,42.1000000000,A01A3A,5,1552378385000
1552378399593.7500000000,22,40.0500000000,A01A3A,5,1552378385000
1552378399609.3798828125,22,37.9900000000,A01A3A,5,1552378385000
1552378399625.0000000000,22,35.7400000000,A01A3A,5,1552378385000
1552378399640.6201171875,22,32.9700000000,A01A3A,5,1552378385000
1552378399656.2500000000,22,29.3700000000,A01A3A,5,1552378385000
1552378399671.8798828125,22,24.8800000000,A01A3A,5,1552378385000
1552378399687.5000000000,22,19.7800000000,A01A3A,5,1552378385000
1552378399703.1201171875,22,14.6100000000,A01A3A,5,1552378385000
1552378399718.7500000000,22,9.9200000000,A01A3A,5,1552378385000
1552378399734.3798828125,22,6.0500000000,A01A3A,5,1552378385000
1552378399750.0000000000,22,3.0700000000,A01A3A,5,1552378385000
1552378399765.6201171875,22,0.7300000000,A01A3A,5,1552378385000
1552378399781.2500000000,22,-1.3600000000,A01A3A,5,1552378385000
1552378399796.8798828125,22,-3.4900000000,A01A3A,5,1552378385000
1552378399812.5000000000,22,-5.8500000000,A01A3A,5,1552378385000
1552378399828.1201171875,22,-8.4700000000,A01A3A,5,1552378385000
1552378399843.7500000000,22,-11.2900000000,A01A3A,5,1552378385000
1552378399859.3798828125,22,-14.2600000000,A01A3A,5,1552378385000
1552378399875.0000000000,22,-17.3400000000,A01A3A,5,1552378385000
1552378399890.6201171875,22,-20.5100000000,A01A3A,5,1552378385000
1552378399906.2500000000,22,-23.7400000000,A01A3A,5,1552378385000
1552378399921.8798828125,22,-27.0000000000,A01A3A,5,1552378385000
1552378399937.5000000000,22,-30.3100000000,A01A3A,5,1552378385000
1552378399953.1201171875,22,-33.7900000000,A01A3A,5,1552378385000
1552378399968.7500000000,22,-37.7400000000,A01A3A,5,1552378385000
1552378399984.3798828125,22,-42.6200000000,A01A3A,5,1552378385000
1552378400000.0000000000,22,-48.8200000000,A01A3A,5,1552378385000
1552378400015.6201171875,22,-56.3700000000,A01A3A,5,1552378385000
1552378400031.2500000000,22,-64.6300000000,A01A3A,5,1552378385000
1552378400046.8798828125,22,-72.2600000000,A01A3A,5,1552378385000
1552378400062.5000000000,22,-77.3800000000,A01A3A,5,1552378385000
1552378400078.1201171875,22,-78.1100000000,A01A3A,5,1552378385000
1552378400093.7500000000,22,-73.2200000000,A01A3A,5,1552378385000
1552378400109.3798828125,22,-62.6000000000,A01A3A,5,1552378385000
1552378400125.0000000000,22,-47.4700000000,A01A3A,5,1552378385000
1552378400140.6201171875,22,-29.9900000000,A01A3A,5,1552378385000
1552378400156.2500000000,22,-12.6500000000,A01A3A,5,1552378385000
1552378400171.8798828125,22,2.4900000000,A01A3A,5,1552378385000
1552378400187.5000000000,22,14.2200000000,A01A3A,5,1552378385000
1552378400203.1201171875,22,22.3600000000,A01A3A,5,1552378385000
1552378400218.7500000000,22,27.4500000000,A01A3A,5,1552378385000
1552378400234.3798828125,22,30.3500000000,A01A3A,5,1552378385000
1552378400250.0000000000,22,31.8800000000,A01A3A,5,1552378385000
1552378400265.6201171875,22,32.6000000000,A01A3A,5,1552378385000
1552378400281.2500000000,22,32.7800000000,A01A3A,5,1552378385000
1552378400296.8798828125,22,32.5500000000,A01A3A,5,1552378385000
1552378400312.5000000000,22,32.0200000000,A01A3A,5,1552378385000
1552378400328.1201171875,22,31.3800000000,A01A3A,5,1552378385000
1552378400343.7500000000,22,30.9500000000,A01A3A,5,1552378385000
1552378400359.3798828125,22,31.0300000000,A01A3A,5,1552378385000
1552378400375.0000000000,22,31.8700000000,A01A3A,5,1552378385000
1552378400390.6201171875,22,33.5200000000,A01A3A,5,1552378385000
1552378400406.2500000000,22,35.8000000000,A01A3A,5,1552378385000
1552378400421.8798828125,22,38.3200000000,A01A3A,5,1552378385000
1552378400437.5000000000,22,40.6200000000,A01A3A,5,1552378385000
1552378400453.1201171875,22,42.3000000000,A01A3A,5,1552378385000
1552378400468.7500000000,22,43.0900000000,A01A3A,5,1552378385000
1552378400484.3798828125,22,42.8900000000,A01A3A,5,1552378385000
1552378400500.0000000000,22,41.7200000000,A01A3A,5,1552378385000
1552378400515.6201171875,22,39.6400000000,A01A3A,5,1552378385000
1552378400531.2500000000,22,36.7500000000,A01A3A,5,1552378385000
1552378400546.8798828125,22,33.1600000000,A01A3A,5,1552378385000
1552378400562.5000000000,22,29.0700000000,A01A3A,5,1552378385000
1552378400578.1201171875,22,24.7400000000,A01A3A,5,1552378385000
1552378400593.7500000000,22,20.4400000000,A01A3A,5,1552378385000
1552378400609.3798828125,22,16.3800000000,A01A3A,5,1552378385000
1552378400625.0000000000,22,12.7200000000,A01A3A,5,1552378385000
1552378400640.6201171875,22,9.5000000000,A01A3A,5,1552378385000
1552378400656.2500000000,22,6.7400000000,A01A3A,5,1552378385000
1552378400671.8798828125,22,4.3800000000,A01A3A,5,1552378385000
1552378400687.5000000000,22,2.3500000000,A01A3A,5,1552378385000
1552378400703.1201171875,22,0.4900000000,A01A3A,5,1552378385000
1552378400718.7500000000,22,-1.4700000000,A01A3A,5,1552378385000
1552378400734.3798828125,22,-3.8100000000,A01A3A,5,1552378385000
1552378400750.0000000000,22,-6.7500000000,A01A3A,5,1552378385000
1552378400765.6201171875,22,-10.2600000000,A01A3A,5,1552378385000
1552378400781.2500000000,22,-14.1200000000,A01A3A,5,1552378385000
1552378400796.8798828125,22,-17.9700000000,A01A3A,5,1552378385000
1552378400812.5000000000,22,-21.4800000000,A01A3A,5,1552378385000
1552378400828.1201171875,22,-24.5400000000,A01A3A,5,1552378385000
1552378400843.7500000000,22,-27.3000000000,A01A3A,5,1552378385000
1552378400859.3798828125,22,-30.1000000000,A01A3A,5,1552378385000
1552378400875.0000000000,22,-33.4200000000,A01A3A,5,1552378385000
1552378400890.6201171875,22,-37.7200000000,A01A3A,5,1552378385000
1552378400906.2500000000,22,-43.3800000000,A01A3A,5,1552378385000
1552378400921.8798828125,22,-50.4800000000,A01A3A,5,1552378385000
1552378400937.5000000000,22,-58.6700000000,A01A3A,5,1552378385000
1552378400953.1201171875,22,-66.9400000000,A01A3A,5,1552378385000
1552378400968.7500000000,22,-73.7000000000,A01A3A,5,1552378385000
1552378400984.3798828125,22,-77.0900000000,A01A3A,5,1552378385000
1552378401000.0000000000,22,-75.5200000000,A01A3A,5,1552378385000
1552378401015.6201171875,22,-68.2300000000,A01A3A,5,1552378385000
1552378401031.2500000000,22,-55.7100000000,A01A3A,5,1552378385000
1552378401046.8798828125,22,-39.5700000000,A01A3A,5,1552378385000
1552378401062.5000000000,22,-22.1100000000,A01A3A,5,1552378385000
1552378401078.1201171875,22,-5.6300000000,A01A3A,5,1552378385000
1552378401093.7500000000,22,8.1400000000,A01A3A,5,1552378385000
1552378401109.3798828125,22,18.3900000000,A01A3A,5,1552378385000
1552378401125.0000000000,22,25.1600000000,A01A3A,5,1552378385000
1552378401140.6201171875,22,29.0500000000,A01A3A,5,1552378385000
1552378401156.2500000000,22,30.9000000000,A01A3A,5,1552378385000
1552378401171.8798828125,22,31.4400000000,A01A3A,5,1552378385000
1552378401187.5000000000,22,31.2200000000,A01A3A,5,1552378385000
1552378401203.1201171875,22,30.5600000000,A01A3A,5,1552378385000
1552378401218.7500000000,22,29.6700000000,A01A3A,5,1552378385000
1552378401234.3798828125,22,28.7600000000,A01A3A,5,1552378385000
1552378401250.0000000000,22,28.1000000000,A01A3A,5,1552378385000
1552378401265.6201171875,22,27.9800000000,A01A3A,5,1552378385000
1552378401281.2500000000,22,28.6400000000,A01A3A,5,1552378385000
1552378401296.8798828125,22,30.1200000000,A01A3A,5,1552378385000
1552378401312.5000000000,22,32.2000000000,A01A3A,5,1552378385000
1552378401328.1201171875,22,34.5100000000,A01A3A,5,1552378385000
1552378401343.7500000000,22,36.5900000000,A01A3A,5,1552378385000
1552378401359.3798828125,22,38.1300000000,A01A3A,5,1552378385000
1552378401375.0000000000,22,39.0000000000,A01A3A,5,1552378385000
1552378401390.6201171875,22,39.2800000000,A01A3A,5,1552378385000
1552378401406.2500000000,22,39.0900000000,A01A3A,5,1552378385000
1552378401421.8798828125,22,38.4800000000,A01A3A,5,1552378385000
1552378401437.5000000000,22,37.3600000000,A01A3A,5,1552378385000
1552378401453.1201171875,22,35.5200000000,A01A3A,5,1552378385000
1552378401468.7500000000,22,32.7600000000,A01A3A,5,1552378385000
1552378401484.3798828125,22,28.9900000000,A01A3A,5,1552378385000
1552378401500.0000000000,22,24.4000000000,A01A3A,5,1552378385000
1552378401515.6201171875,22,19.3600000000,A01A3A,5,1552378385000
1552378401531.2500000000,22,14.4000000000,A01A3A,5,1552378385000
1552378401546.8798828125,22,10.0000000000,A01A3A,5,1552378385000
1552378401562.5000000000,22,6.5000000000,A01A3A,5,1552378385000
1552378401578.1201171875,22,3.9700000000,A01A3A,5,1552378385000
1552378401593.7500000000,22,2.1900000000,A01A3A,5,1552378385000
1552378401609.3798828125,22,0.6900000000,A01A3A,5,1552378385000
1552378401625.0000000000,22,-1.0300000000,A01A3A,5,1552378385000
1552378401640.6201171875,22,-3.3600000000,A01A3A,5,1552378385000
1552378401656.2500000000,22,-6.4000000000,A01A3A,5,1552378385000
1552378401671.8798828125,22,-9.9200000000,A01A3A,5,1552378385000
1552378401687.5000000000,22,-13.5000000000,A01A3A,5,1552378385000
1552378401703.1201171875,22,-16.6800000000,A01A3A,5,1552378385000
1552378401718.7500000000,22,-19.2300000000,A01A3A,5,1552378385000
1552378401734.3798828125,22,-21.2700000000,A01A3A,5,1552378385000
1552378401750.0000000000,22,-23.1600000000,A01A3A,5,1552378385000
1552378401765.6201171875,22,-25.4800000000,A01A3A,5,1552378385000
1552378401781.2500000000,22,-28.7200000000,A01A3A,5,1552378385000
1552378401796.8798828125,22,-33.2300000000,A01A3A,5,1552378385000
1552378401812.5000000000,22,-39.1200000000,A01A3A,5,1552378385000
1552378401828.1201171875,22,-46.1800000000,A01A3A,5,1552378385000
1552378401843.7500000000,22,-53.8200000000,A01A3A,5,1552378385000
1552378401859.3798828125,22,-60.9700000000,A01A3A,5,1552378385000
1552378401875.0000000000,22,-66.1700000000,A01A3A,5,1552378385000
1552378401890.6201171875,22,-67.8000000000,A01A3A,5,1552378385000
1552378401906.2500000000,22,-64.5600000000,A01A3A,5,1552378385000
1552378401921.8798828125,22,-55.9900000000,A01A3A,5,1552378385000
1552378401937.5000000000,22,-42.7900000000,A01A3A,5,1552378385000
1552378401953.1201171875,22,-26.7300000000,A01A3A,5,1552378385000
1552378401968.7500000000,22,-10.0900000000,A01A3A,5,1552378385000
1552378401984.3798828125,22,4.9200000000,A01A3A,5,1552378385000
1552378402000.0000000000,22,16.8600000000,A01A3A,5,1552378385000
1552378402015.6201171875,22,25.2200000000,A01A3A,5,1552378385000
1552378402031.2500000000,22,30.2900000000,A01A3A,5,1552378385000
1552378402046.8798828125,22,32.8100000000,A01A3A,5,1552378385000
1552378402062.5000000000,22,33.5100000000,A01A3A,5,1552378385000
1552378402078.1201171875,22,32.9100000000,A01A3A,5,1552378385000
1552378402093.7500000000,22,31.2600000000,A01A3A,5,1552378385000
1552378402109.3798828125,22,28.7300000000,A01A3A,5,1552378385000
1552378402125.0000000000,22,25.5600000000,A01A3A,5,1552378385000
1552378402140.6201171875,22,22.2500000000,A01A3A,5,1552378385000
1552378402156.2500000000,22,19.4900000000,A01A3A,5,1552378385000
1552378402171.8798828125,22,17.9900000000,A01A3A,5,1552378385000
1552378402187.5000000000,22,18.2100000000,A01A3A,5,1552378385000
1552378402203.1201171875,22,20.1800000000,A01A3A,5,1552378385000
1552378402218.7500000000,22,23.4200000000,A01A3A,5,1552378385000
1552378402234.3798828125,22,27.1600000000,A01A3A,5,1552378385000
1552378402250.0000000000,22,30.5400000000,A01A3A,5,1552378385000
1552378402265.6201171875,22,32.9300000000,A01A3A,5,1552378385000
1552378402281.2500000000,22,34.1100000000,A01A3A,5,1552378385000
1552378402296.8798828125,22,34.1800000000,A01A3A,5,1552378385000
1552378402312.5000000000,22,33.3700000000,A01A3A,5,1552378385000
1552378402328.1201171875,22,31.8800000000,A01A3A,5,1552378385000
1552378402343.7500000000,22,29.7100000000,A01A3A,5,1552378385000
1552378402359.3798828125,22,26.7600000000,A01A3A,5,1552378385000
1552378402375.0000000000,22,22.9500000000,A01A3A,5,1552378385000
1552378402390.6201171875,22,18.4300000000,A01A3A,5,1552378385000
1552378402406.2500000000,22,13.5700000000,A01A3A,5,1552378385000
1552378402421.8798828125,22,8.8700000000,A01A3A,5,1552378385000
1552378402437.5000000000,22,4.8200000000,A01A3A,5,1552378385000
1552378402453.1201171875,22,1.6500000000,A01A3A,5,1552378385000
1552378402468.7500000000,22,-0.7100000000,A01A3A,5,1552378385000
1552378402484.3798828125,22,-2.6900000000,A01A3A,5,1552378385000
1552378402500.0000000000,22,-4.8500000000,A01A3A,5,1552378385000
1552378402515.6201171875,22,-7.6400000000,A01A3A,5,1552378385000
1552378402531.2500000000,22,-11.2000000000,A01A3A,5,1552378385000
1552378402546.8798828125,22,-15.3000000000,A01A3A,5,1552378385000
1552378402562.5000000000,22,-19.3900000000,A01A3A,5,1552378385000
1552378402578.1201171875,22,-22.9000000000,A01A3A,5,1552378385000
1552378402593.7500000000,22,-25.5700000000,A01A3A,5,1552378385000
1552378402609.3798828125,22,-27.5200000000,A01A3A,5,1552378385000
1552378402625.0000000000,22,-29.3200000000,A01A3A,5,1552378385000
1552378402640.6201171875,22,-31.6600000000,A01A3A,5,1552378385000
1552378402656.2500000000,22,-35.2200000000,A01A3A,5,1552378385000
1552378402671.8798828125,22,-40.3900000000,A01A3A,5,1552378385000
1552378402687.5000000000,22,-47.1700000000,A01A3A,5,1552378385000
1552378402703.1201171875,22,-55.1700000000,A01A3A,5,1552378385000
1552378402718.7500000000,22,-63.4900000000,A01A3A,5,1552378385000
1552378402734.3798828125,22,-70.7200000000,A01A3A,5,1552378385000
1552378402750.0000000000,22,-75.1300000000,A01A3A,5,1552378385000
1552378402765.6201171875,22,-75.0400000000,A01A3A,5,1552378385000
1552378402781.2500000000,22,-69.3700000000,A01A3A,5,1552378385000
1552378402796.8798828125,22,-58.1200000000,A01A3A,5,1552378385000
1552378402812.5000000000,22,-42.5900000000,A01A3A,5,1552378385000
1552378402828.1201171875,22,-24.9700000000,A01A3A,5,1552378385000
1552378402843.7500000000,22,-7.7600000000,A01A3A,5,1552378385000
1552378402859.3798828125,22,7.0300000000,A01A3A,5,1552378385000
1552378402875.0000000000,22,18.3200000000,A01A3A,5,1552378385000
1552378402890.6201171875,22,26.0400000000,A01A3A,5,1552378385000
1552378402906.2500000000,22,30.7700000000,A01A3A,5,1552378385000
1552378402921.8798828125,22,33.2900000000,A01A3A,5,1552378385000
1552378402937.5000000000,22,34.2600000000,A01A3A,5,1552378385000
1552378402953.1201171875,22,34.1300000000,A01A3A,5,1552378385000
1552378402968.7500000000,22,33.2000000000,A01A3A,5,1552378385000
1552378402984.3798828125,22,31.7200000000,A01A3A,5,1552378385000
1552378403000.0000000000,22,30.0300000000,A01A3A,5,1552378385000
1552378403015.6201171875,22,28.4800000000,A01A3A,5,1552378385000
1552378403031.2500000000,22,27.4100000000,A01A3A,5,1552378385000
1552378403046.8798828125,22,27.0400000000,A01A3A,5,1552378385000
1552378403062.5000000000,22,27.4800000000,A01A3A,5,1552378385000
1552378403078.1201171875,22,28.6700000000,A01A3A,5,1552378385000
1552378403093.7500000000,22,30.4400000000,A01A3A,5,1552378385000
1552378403109.3798828125,22,32.5600000000,A01A3A,5,1552378385000
1552378403125.0000000000,22,34.7300000000,A01A3A,5,1552378385000
1552378403140.6201171875,22,36.6400000000,A01A3A,5,1552378385000
1552378403156.2500000000,22,38.0000000000,A01A3A,5,1552378385000
1552378403171.8798828125,22,38.5700000000,A01A3A,5,1552378385000
1552378403187.5000000000,22,38.1800000000,A01A3A,5,1552378385000
1552378403203.1201171875,22,36.7300000000,A01A3A,5,1552378385000
1552378403218.7500000000,22,34.2100000000,A01A3A,5,1552378385000
1552378403234.3798828125,22,30.7400000000,A01A3A,5,1552378385000
1552378403250.0000000000,22,26.5800000000,A01A3A,5,1552378385000
1552378403265.6201171875,22,22.1200000000,A01A3A,5,1552378385000
1552378403281.2500000000,22,17.8000000000,A01A3A,5,1552378385000
1552378403296.8798828125,22,14.0000000000,A01A3A,5,1552378385000
1552378403312.5000000000,22,10.8500000000,A01A3A,5,1552378385000
1552378403328.1201171875,22,8.2600000000,A01A3A,5,1552378385000
1552378403343.7500000000,22,5.9000000000,A01A3A,5,1552378385000
1552378403359.3798828125,22,3.4400000000,A01A3A,5,1552378385000
1552378403375.0000000000,22,0.6800000000,A01A3A,5,1552378385000
1552378403390.6201171875,22,-2.2900000000,A01A3A,5,1552378385000
1552378403406.2500000000,22,-5.2200000000,A01A3A,5,1552378385000
1552378403421.8798828125,22,-7.8100000000,A01A3A,5,1552378385000
1552378403437.5000000000,22,-10.0000000000,A01A3A,5,1552378385000
1552378403453.1201171875,22,-11.9800000000,A01A3A,5,1552378385000
1552378403468.7500000000,22,-14.1500000000,A01A3A,5,1552378385000
1552378403484.3798828125,22,-16.8900000000,A01A3A,5,1552378385000
1552378403500.0000000000,22,-20.3400000000,A01A3A,5,1552378385000
1552378403515.6201171875,22,-24.3300000000,A01A3A,5,1552378385000
1552378403531.2500000000,22,-28.4300000000,A01A3A,5,1552378385000
1552378403546.8798828125,22,-32.2600000000,A01A3A,5,1552378385000
1552378403562.5000000000,22,-35.6500000000,A01A3A,5,1552378385000
1552378403578.1201171875,22,-38.8700000000,A01A3A,5,1552378385000
1552378403593.7500000000,22,-42.4400000000,A01A3A,5,1552378385000
1552378403609.3798828125,22,-47.0500000000,A01A3A,5,1552378385000
1552378403625.0000000000,22,-53.1800000000,A01A3A,5,1552378385000
1552378403640.6201171875,22,-60.8100000000,A01A3A,5,1552378385000
1552378403656.2500000000,22,-69.2100000000,A01A3A,5,1552378385000
1552378403671.8798828125,22,-76.9400000000,A01A3A,5,1552378385000
1552378403687.5000000000,22,-82.0900000000,A01A3A,5,1552378385000
1552378403703.1201171875,22,-82.7700000000,A01A3A,5,1552378385000
1552378403718.7500000000,22,-77.7600000000,A01A3A,5,1552378385000
1552378403734.3798828125,22,-66.9700000000,A01A3A,5,1552378385000
1552378403750.0000000000,22,-51.5500000000,A01A3A,5,1552378385000
1552378403765.6201171875,22,-33.6100000000,A01A3A,5,1552378385000
1552378403781.2500000000,22,-15.5900000000,A01A3A,5,1552378385000
1552378403796.8798828125,22,0.4300000000,A01A3A,5,1552378385000
1552378403812.5000000000,22,13.1700000000,A01A3A,5,1552378385000
1552378403828.1201171875,22,22.2800000000,A01A3A,5,1552378385000
1552378403843.7500000000,22,28.0700000000,A01A3A,5,1552378385000
1552378403859.3798828125,22,31.2700000000,A01A3A,5,1552378385000
1552378403875.0000000000,22,32.6700000000,A01A3A,5,1552378385000
1552378403890.6201171875,22,32.9500000000,A01A3A,5,1552378385000
1552378403906.2500000000,22,32.6400000000,A01A3A,5,1552378385000
1552378403921.8798828125,22,32.1400000000,A01A3A,5,1552378385000
1552378403937.5000000000,22,31.7000000000,A01A3A,5,1552378385000
1552378403953.1201171875,22,31.4800000000,A01A3A,5,1552378385000
1552378403968.7500000000,22,31.5500000000,A01A3A,5,1552378385000
1552378403984.3798828125,22,31.9300000000,A01A3A,5,1552378385000
1552378404000.0000000000,22,32.6400000000,A01A3A,5,1552378385000
1552378404015.6201171875,22,33.6200000000,A01A3A,5,1552378385000
1552378404031.2500000000,22,34.8300000000,A01A3A,5,1552378385000
1552378404046.8798828125,22,36.2600000000,A01A3A,5,1552378385000
1552378404062.5000000000,22,37.8800000000,A01A3A,5,1552378385000
1552378404078.1201171875,22,39.6700000000,A01A3A,5,1552378385000
1552378404093.7500000000,22,41.5200000000,A01A3A,5,1552378385000
1552378404109.3798828125,22,43.2000000000,A01A3A,5,1552378385000
1552378404125.0000000000,22,44.3300000000,A01A3A,5,1552378385000
1552378404140.6201171875,22,44.4700000000,A01A3A,5,1552378385000
1552378404156.2500000000,22,43.2400000000,A01A3A,5,1552378385000
1552378404171.8798828125,22,40.4800000000,A01A3A,5,1552378385000
1552378404187.5000000000,22,36.3700000000,A01A3A,5,1552378385000
1552378404203.1201171875,22,31.3900000000,A01A3A,5,1552378385000
1552378404218.7500000000,22,26.1400000000,A01A3A,5,1552378385000
1552378404234.3798828125,22,21.2200000000,A01A3A,5,1552378385000
1552378404250.0000000000,22,16.9900000000,A01A3A,5,1552378385000
1552378404265.6201171875,22,13.5300000000,A01A3A,5,1552378385000
1552378404281.2500000000,22,10.6700000000,A01A3A,5,1552378385000
1552378404296.8798828125,22,8.1200000000,A01A3A,5,1552378385000
1552378404312.5000000000,22,5.6100000000,A01A3A,5,1552378385000
1552378404328.1201171875,22,2.9700000000,A01A3A,5,1552378385000
1552378404343.7500000000,22,0.2500000000,A01A3A,5,1552378385000
1552378404359.3798828125,22,-2.4200000000,A01A3A,5,1552378385000
1552378404375.0000000000,22,-4.9100000000,A01A3A,5,1552378385000
1552378404390.6201171875,22,-7.2100000000,A01A3A,5,1552378385000
1552378404406.2500000000,22,-9.4900000000,A01A3A,5,1552378385000
1552378404421.8798828125,22,-12.0300000000,A01A3A,5,1552378385000
1552378404437.5000000000,22,-15.1200000000,A01A3A,5,1552378385000
1552378404453.1201171875,22,-18.9000000000,A01A3A,5,1552378385000
1552378404468.7500000000,22,-23.3100000000,A01A3A,5,1552378385000
1552378404484.3798828125,22,-28.0700000000,A01A3A,5,1552378385000
1552378404500.0000000000,22,-32.8300000000,A01A3A,5,1552378385000
1552378404515.6201171875,22,-37.2400000000,A01A3A,5,1552378385000
1552378404531.2500000000,22,-41.1400000000,A01A3A,5,1552378385000
1552378404546.8798828125,22,-44.6300000000,A01A3A,5,1552378385000
1552378404562.5000000000,22,-48.0300000000,A01A3A,5,1552378385000
1552378404578.1201171875,22,-51.8800000000,A01A3A,5,1552378385000
1552378404593.7500000000,22,-56.7300000000,A01A3A,5,1552378385000
1552378404609.3798828125,22,-62.8500000000,A01A3A,5,1552378385000
1552378404625.0000000000,22,-69.9700000000,A01A3A,5,1552378385000
1552378404640.6201171875,22,-77.0600000000,A01A3A,5,1552378385000
1552378404656.2500000000,22,-82.4100000000,A01A3A,5,1552378385000
1552378404671.8798828125,22,-84.0500000000,A01A3A,5,1552378385000
1552378404687.5000000000,22,-80.3200000000,A01A3A,5,1552378385000
1552378404703.1201171875,22,-70.6100000000,A01A3A,5,1552378385000
1552378404718.7500000000,22,-55.6400000000,A01A3A,5,1552378385000
1552378404734.3798828125,22,-37.3700000000,A01A3A,5,1552378385000
1552378404750.0000000000,22,-18.4000000000,A01A3A,5,1552378385000
1552378404765.6201171875,22,-1.1700000000,A01A3A,5,1552378385000
1552378404781.2500000000,22,12.6300000000,A01A3A,5,1552378385000
1552378404796.8798828125,22,22.3700000000,A01A3A,5,1552378385000
1552378404812.5000000000,22,28.3900000000,A01A3A,5,1552378385000
1552378404828.1201171875,22,31.5700000000,A01A3A,5,1552378385000
1552378404843.7500000000,22,32.8800000000,A01A3A,5,1552378385000
1552378404859.3798828125,22,33.1500000000,A01A3A,5,1552378385000
1552378404875.0000000000,22,32.9300000000,A01A3A,5,1552378385000
1552378404890.6201171875,22,32.5500000000,A01A3A,5,1552378385000
1552378404906.2500000000,22,32.2000000000,A01A3A,5,1552378385000
1552378404921.8798828125,22,31.9700000000,A01A3A,5,1552378385000
1552378404937.5000000000,22,31.9000000000,A01A3A,5,1552378385000
1552378404953.1201171875,22,31.9700000000,A01A3A,5,1552378385000
1552378404968.7500000000,22,32.1900000000,A01A3A,5,1552378385000
1552378404984.3798828125,22,32.6000000000,A01A3A,5,1552378385000
1552378405000.0000000000,22,33.3000000000,A01A3A,5,1552378385000
1552378405015.6201171875,22,34.4000000000,A01A3A,5,1552378385000
1552378405031.2500000000,22,35.9500000000,A01A3A,5,1552378385000
1552378405046.8798828125,22,37.8100000000,A01A3A,5,1552378385000
1552378405062.5000000000,22,39.6600000000,A01A3A,5,1552378385000
1552378405078.1201171875,22,41.0700000000,A01A3A,5,1552378385000
1552378405093.7500000000,22,41.5700000000,A01A3A,5,1552378385000
1552378405109.3798828125,22,40.8200000000,A01A3A,5,1552378385000
1552378405125.0000000000,22,38.7100000000,A01A3A,5,1552378385000
1552378405140.6201171875,22,35.4000000000,A01A3A,5,1552378385000
1552378405156.2500000000,22,31.3000000000,A01A3A,5,1552378385000
1552378405171.8798828125,22,26.9100000000,A01A3A,5,1552378385000
1552378405187.5000000000,22,22.6800000000,A01A3A,5,1552378385000
1552378405203.1201171875,22,18.8800000000,A01A3A,5,1552378385000
1552378405218.7500000000,22,15.4900000000,A01A3A,5,1552378385000
1552378405234.3798828125,22,12.3400000000,A01A3A,5,1552378385000
1552378405250.0000000000,22,9.2100000000,A01A3A,5,1552378385000
1552378405265.6201171875,22,6.0100000000,A01A3A,5,1552378385000
1552378405281.2500000000,22,2.8400000000,A01A3A,5,1552378385000
1552378405296.8798828125,22,-0.0800000000,A01A3A,5,1552378385000
1552378405312.5000000000,22,-2.6000000000,A01A3A,5,1552378385000
1552378405328.1201171875,22,-4.7600000000,A01A3A,5,1552378385000
1552378405343.7500000000,22,-6.8400000000,A01A3A,5,1552378385000
1552378405359.3798828125,22,-9.2100000000,A01A3A,5,1552378385000
1552378405375.0000000000,22,-12.1900000000,A01A3A,5,1552378385000
1552378405390.6201171875,22,-15.8300000000,A01A3A,5,1552378385000
1552378405406.2500000000,22,-19.8900000000,A01A3A,5,1552378385000
1552378405421.8798828125,22,-24.0100000000,A01A3A,5,1552378385000
1552378405437.5000000000,22,-27.8000000000,A01A3A,5,1552378385000
1552378405453.1201171875,22,-31.0700000000,A01A3A,5,1552378385000
1552378405468.7500000000,22,-33.8600000000,A01A3A,5,1552378385000
1552378405484.3798828125,22,-36.3700000000,A01A3A,5,1552378385000
1552378405500.0000000000,22,-38.9800000000,A01A3A,5,1552378385000
1552378405515.6201171875,22,-42.1300000000,A01A3A,5,1552378385000
1552378405531.2500000000,22,-46.2900000000,A01A3A,5,1552378385000
1552378405546.8798828125,22,-51.8300000000,A01A3A,5,1552378385000
1552378405562.5000000000,22,-58.8600000000,A01A3A,5,1552378385000
1552378405578.1201171875,22,-66.8900000000,A01A3A,5,1552378385000
1552378405593.7500000000,22,-74.7200000000,A01A3A,5,1552378385000
1552378405609.3798828125,22,-80.4600000000,A01A3A,5,1552378385000
1552378405625.0000000000,22,-82.0600000000,A01A3A,5,1552378385000
1552378405640.6201171875,22,-77.9700000000,A01A3A,5,1552378385000
1552378405656.2500000000,22,-67.7900000000,A01A3A,5,1552378385000
1552378405671.8798828125,22,-52.5900000000,A01A3A,5,1552378385000
1552378405687.5000000000,22,-34.6200000000,A01A3A,5,1552378385000
1552378405703.1201171875,22,-16.6100000000,A01A3A,5,1552378385000
1552378405718.7500000000,22,-0.8800000000,A01A3A,5,1552378385000
1552378405734.3798828125,22,11.2100000000,A01A3A,5,1552378385000
1552378405750.0000000000,22,19.4700000000,A01A3A,5,1552378385000
1552378405765.6201171875,22,24.5300000000,A01A3A,5,1552378385000
1552378405781.2500000000,22,27.3400000000,A01A3A,5,1552378385000
1552378405796.8798828125,22,28.6900000000,A01A3A,5,1552378385000
1552378405812.5000000000,22,29.0200000000,A01A3A,5,1552378385000
1552378405828.1201171875,22,28.5000000000,A01A3A,5,1552378385000
1552378405843.7500000000,22,27.2600000000,A01A3A,5,1552378385000
1552378405859.3798828125,22,25.5400000000,A01A3A,5,1552378385000
1552378405875.0000000000,22,23.8300000000,A01A3A,5,1552378385000
1552378405890.6201171875,22,22.6600000000,A01A3A,5,1552378385000
1552378405906.2500000000,22,22.4800000000,A01A3A,5,1552378385000
1552378405921.8798828125,22,23.4500000000,A01A3A,5,1552378385000
1552378405937.5000000000,22,25.4400000000,A01A3A,5,1552378385000
1552378405953.1201171875,22,28.0500000000,A01A3A,5,1552378385000
1552378405968.7500000000,22,30.8100000000,A01A3A,5,1552378385000
1552378405984.3798828125,22,33.3700000000,A01A3A,5,1552378385000
1552378406000.0000000000,22,35.4900000000,A01A3A,5,1552378385000
1552378406015.6201171875,22,37.0900000000,A01A3A,5,1552378385000
1552378406031.2500000000,22,38.1200000000,A01A3A,5,1552378385000
1552378406046.8798828125,22,38.4800000000,A01A3A,5,1552378385000
1552378406062.5000000000,22,37.9100000000,A01A3A,5,1552378385000
1552378406078.1201171875,22,36.0600000000,A01A3A,5,1552378385000
1552378406093.7500000000,22,32.6800000000,A01A3A,5,1552378385000
1552378406109.3798828125,22,27.7700000000,A01A3A,5,1552378385000
1552378406125.0000000000,22,21.6900000000,A01A3A,5,1552378385000
1552378406140.6201171875,22,15.1200000000,A01A3A,5,1552378385000
1552378406156.2500000000,22,8.8300000000,A01A3A,5,1552378385000
1552378406171.8798828125,22,3.4500000000,A01A3A,5,1552378385000
1552378406187.5000000000,22,-0.7400000000,A01A3A,5,1552378385000
1552378406203.1201171875,22,-3.8600000000,A01A3A,5,1552378385000
1552378406218.7500000000,22,-6.3200000000,A01A3A,5,1552378385000
1552378406234.3798828125,22,-8.6300000000,A01A3A,5,1552378385000
1552378406250.0000000000,22,-11.1300000000,A01A3A,5,1552378385000
1552378406265.6201171875,22,-13.9500000000,A01A3A,5,1552378385000
1552378406281.2500000000,22,-16.9200000000,A01A3A,5,1552378385000
1552378406296.8798828125,22,-19.7600000000,A01A3A,5,1552378385000
1552378406312.5000000000,22,-22.2200000000,A01A3A,5,1552378385000
1552378406328.1201171875,22,-24.1900000000,A01A3A,5,1552378385000
1552378406343.7500000000,22,-25.8100000000,A01A3A,5,1552378385000
1552378406359.3798828125,22,-27.4200000000,A01A3A,5,1552378385000
1552378406375.0000000000,22,-29.5100000000,A01A3A,5,1552378385000
1552378406390.6201171875,22,-32.6100000000,A01A3A,5,1552378385000
1552378406406.2500000000,22,-37.1800000000,A01A3A,5,1552378385000
1552378406421.8798828125,22,-43.3600000000,A01A3A,5,1552378385000
1552378406437.5000000000,22,-50.8100000000,A01A3A,5,1552378385000
1552378406453.1201171875,22,-58.5500000000,A01A3A,5,1552378385000
1552378406468.7500000000,22,-65.0100000000,A01A3A,5,1552378385000
1552378406484.3798828125,22,-68.2700000000,A01A3A,5,1552378385000
1552378406500.0000000000,22,-66.6900000000,A01A3A,5,1552378385000
1552378406515.6201171875,22,-59.4500000000,A01A3A,5,1552378385000
1552378406531.2500000000,22,-46.9800000000,A01A3A,5,1552378385000
1552378406546.8798828125,22,-30.9200000000,A01A3A,5,1552378385000
1552378406562.5000000000,22,-13.6400000000,A01A3A,5,1552378385000
1552378406578.1201171875,22,2.4600000000,A01A3A,5,1552378385000
1552378406593.7500000000,22,15.7000000000,A01A3A,5,1552378385000
1552378406609.3798828125,22,25.3500000000,A01A3A,5,1552378385000
1552378406625.0000000000,22,31.5900000000,A01A3A,5,1552378385000
1552378406640.6201171875,22,35.1000000000,A01A3A,5,1552378385000
1552378406656.2500000000,22,36.6100000000,A01A3A,5,1552378385000
1552378406671.8798828125,22,36.6300000000,A01A3A,5,1552378385000
1552378406687.5000000000,22,35.4600000000,A01A3A,5,1552378385000
1552378406703.1201171875,22,33.3500000000,A01A3A,5,1552378385000
1552378406718.7500000000,22,30.6900000000,A01A3A,5,1552378385000
1552378406734.3798828125,22,28.0000000000,A01A3A,5,1552378385000
1552378406750.0000000000,22,25.9100000000,A01A3A,5,1552378385000
1552378406765.6201171875,22,24.9100000000,A01A3A,5,1552378385000
1552378406781.2500000000,22,25.2400000000,A01A3A,5,1552378385000
1552378406796.8798828125,22,26.8300000000,A01A3A,5,1552378385000
1552378406812.5000000000,22,29.3700000000,A01A3A,5,1552378385000
1552378406828.1201171875,22,32.4100000000,A01A3A,5,1552378385000
1552378406843.7500000000,22,35.4700000000,A01A3A,5,1552378385000
1552378406859.3798828125,22,38.1900000000,A01A3A,5,1552378385000
1552378406875.0000000000,22,40.3100000000,A01A3A,5,1552378385000
1552378406890.6201171875,22,41.6300000000,A01A3A,5,1552378385000
1552378406906.2500000000,22,42.0100000000,A01A3A,5,1552378385000
1552378406921.8798828125,22,41.3400000000,A01A3A,5,1552378385000
1552378406937.5000000000,22,39.5700000000,A01A3A,5,1552378385000
1552378406953.1201171875,22,36.8100000000,A01A3A,5,1552378385000
1552378406968.7500000000,22,33.3100000000,A01A3A,5,1552378385000
1552378406984.3798828125,22,29.3700000000,A01A3A,5,1552378385000
1552378407000.0000000000,22,25.3200000000,A01A3A,5,1552378385000
1552378407015.6201171875,22,21.3400000000,A01A3A,5,1552378385000
1552378407031.2500000000,22,17.4700000000,A01A3A,5,1552378385000
1552378407046.8798828125,22,13.6700000000,A01A3A,5,1552378385000
1552378407062.5000000000,22,9.8500000000,A01A3A,5,1552378385000
1552378407078.1201171875,22,5.9900000000,A01A3A,5,1552378385000
1552378407093.7500000000,22,2.1500000000,A01A3A,5,1552378385000
1552378407109.3798828125,22,-1.5400000000,A01A3A,5,1552378385000
1552378407125.0000000000,22,-5.0500000000,A01A3A,5,1552378385000
1552378407140.6201171875,22,-8.4100000000,A01A3A,5,1552378385000
1552378407156.2500000000,22,-11.7400000000,A01A3A,5,1552378385000
1552378407171.8798828125,22,-15.2000000000,A01A3A,5,1552378385000
1552378407187.5000000000,22,-18.8500000000,A01A3A,5,1552378385000
1552378407203.1201171875,22,-22.6600000000,A01A3A,5,1552378385000
1552378407218.7500000000,22,-26.5000000000,A01A3A,5,1552378385000
1552378407234.3798828125,22,-30.1800000000,A01A3A,5,1552378385000
1552378407250.0000000000,22,-33.6500000000,A01A3A,5,1552378385000
1552378407265.6201171875,22,-36.9100000000,A01A3A,5,1552378385000
1552378407281.2500000000,22,-40.1600000000,A01A3A,5,1552378385000
1552378407296.8798828125,22,-43.7300000000,A01A3A,5,1552378385000
1552378407312.5000000000,22,-48.0400000000,A01A3A,5,1552378385000
1552378407328.1201171875,22,-53.5000000000,A01A3A,5,1552378385000
1552378407343.7500000000,22,-60.3200000000,A01A3A,5,1552378385000
1552378407359.3798828125,22,-68.2600000000,A01A3A,5,1552378385000
1552378407375.0000000000,22,-76.4800000000,A01A3A,5,1552378385000
1552378407390.6201171875,22,-83.4400000000,A01A3A,5,1552378385000
1552378407406.2500000000,22,-87.1800000000,A01A3A,5,1552378385000
1552378407421.8798828125,22,-85.8600000000,A01A3A,5,1552378385000
1552378407437.5000000000,22,-78.4600000000,A01A3A,5,1552378385000
1552378407453.1201171875,22,-65.1800000000,A01A3A,5,1552378385000
1552378407468.7500000000,22,-47.6200000000,A01A3A,5,1552378385000
1552378407484.3798828125,22,-28.2400000000,A01A3A,5,1552378385000
1552378407500.0000000000,22,-9.6500000000,A01A3A,5,1552378385000
1552378407515.6201171875,22,6.1200000000,A01A3A,5,1552378385000
1552378407531.2500000000,22,18.0500000000,A01A3A,5,1552378385000
1552378407546.8798828125,22,26.1100000000,A01A3A,5,1552378385000
1552378407562.5000000000,22,30.9000000000,A01A3A,5,1552378385000
1552378407578.1201171875,22,33.2800000000,A01A3A,5,1552378385000
1552378407593.7500000000,22,34.0400000000,A01A3A,5,1552378385000
1552378407609.3798828125,22,33.7400000000,A01A3A,5,1552378385000
1552378407625.0000000000,22,32.8500000000,A01A3A,5,1552378385000
1552378407640.6201171875,22,31.7700000000,A01A3A,5,1552378385000
1552378407656.2500000000,22,30.8400000000,A01A3A,5,1552378385000
1552378407671.8798828125,22,30.3700000000,A01A3A,5,1552378385000
1552378407687.5000000000,22,30.5500000000,A01A3A,5,1552378385000
1552378407703.1201171875,22,31.4500000000,A01A3A,5,1552378385000
1552378407718.7500000000,22,33.0800000000,A01A3A,5,1552378385000
1552378407734.3798828125,22,35.3500000000,A01A3A,5,1552378385000
1552378407750.0000000000,22,38.1100000000,A01A3A,5,1552378385000
1552378407765.6201171875,22,41.0800000000,A01A3A,5,1552378385000
1552378407781.2500000000,22,43.9300000000,A01A3A,5,1552378385000
1552378407796.8798828125,22,46.2900000000,A01A3A,5,1552378385000
1552378407812.5000000000,22,47.8000000000,A01A3A,5,1552378385000
1552378407828.1201171875,22,48.2500000000,A01A3A,5,1552378385000
1552378407843.7500000000,22,47.5700000000,A01A3A,5,1552378385000
1552378407859.3798828125,22,45.8000000000,A01A3A,5,1552378385000
1552378407875.0000000000,22,43.1000000000,A01A3A,5,1552378385000
1552378407890.6201171875,22,39.6600000000,A01A3A,5,1552378385000
1552378407906.2500000000,22,35.6600000000,A01A3A,5,1552378385000
1552378407921.8798828125,22,31.3200000000,A01A3A,5,1552378385000
1552378407937.5000000000,22,26.8700000000,A01A3A,5,1552378385000
1552378407953.1201171875,22,22.5900000000,A01A3A,5,1552378385000
1552378407968.7500000000,22,18.6500000000,A01A3A,5,1552378385000
1552378407984.3798828125,22,15.1400000000,A01A3A,5,1552378385000
1552378408000.0000000000,22,11.9300000000,A01A3A,5,1552378385000
1552378408015.6201171875,22,8.8200000000,A01A3A,5,1552378385000
1552378408031.2500000000,22,5.6400000000,A01A3A,5,1552378385000
1552378408046.8798828125,22,2.3900000000,A01A3A,5,1552378385000
1552378408062.5000000000,22,-0.7500000000,A01A3A,5,1552378385000
1552378408078.1201171875,22,-3.5600000000,A01A3A,5,1552378385000
1552378408093.7500000000,22,-5.9000000000,A01A3A,5,1552378385000
1552378408109.3798828125,22,-7.9100000000,A01A3A,5,1552378385000
1552378408125.0000000000,22,-9.9200000000,A01A3A,5,1552378385000
1552378408140.6201171875,22,-12.3900000000,A01A3A,5,1552378385000
1552378408156.2500000000,22,-15.6100000000,A01A3A,5,1552378385000
1552378408171.8798828125,22,-19.6000000000,A01A3A,5,1552378385000
1552378408187.5000000000,22,-24.0700000000,A01A3A,5,1552378385000
1552378408203.1201171875,22,-28.6000000000,A01A3A,5,1552378385000
1552378408218.7500000000,22,-32.8600000000,A01A3A,5,1552378385000
1552378408234.3798828125,22,-36.7800000000,A01A3A,5,1552378385000
1552378408250.0000000000,22,-40.6100000000,A01A3A,5,1552378385000
1552378408265.6201171875,22,-44.8600000000,A01A3A,5,1552378385000
1552378408281.2500000000,22,-50.1700000000,A01A3A,5,1552378385000
1552378408296.8798828125,22,-56.9900000000,A01A3A,5,1552378385000
1552378408312.5000000000,22,-65.3500000000,A01A3A,5,1552378385000
1552378408328.1201171875,22,-74.5800000000,A01A3A,5,1552378385000
1552378408343.7500000000,22,-83.1600000000,A01A3A,5,1552378385000
1552378408359.3798828125,22,-89.0200000000,A01A3A,5,1552378385000
1552378408375.0000000000,22,-89.9600000000,A01A3A,5,1552378385000
1552378408390.6201171875,22,-84.4800000000,A01A3A,5,1552378385000
1552378408406.2500000000,22,-72.3600000000,A01A3A,5,1552378385000
1552378408421.8798828125,22,-54.8900000000,A01A3A,5,1552378385000
1552378408437.5000000000,22,-34.6100000000,A01A3A,5,1552378385000
1552378408453.1201171875,22,-14.4600000000,A01A3A,5,1552378385000
1552378408468.7500000000,22,3.0700000000,A01A3A,5,1552378385000
1552378408484.3798828125,22,16.5700000000,A01A3A,5,1552378385000
1552378408500.0000000000,22,25.8600000000,A01A3A,5,1552378385000
1552378408515.6201171875,22,31.6100000000,A01A3A,5,1552378385000
1552378408531.2500000000,22,34.8900000000,A01A3A,5,1552378385000
1552378408546.8798828125,22,36.6300000000,A01A3A,5,1552378385000
1552378408562.5000000000,22,37.4400000000,A01A3A,5,1552378385000
1552378408578.1201171875,22,37.6000000000,A01A3A,5,1552378385000
1552378408593.7500000000,22,37.3000000000,A01A3A,5,1552378385000
1552378408609.3798828125,22,36.7000000000,A01A3A,5,1552378385000
1552378408625.0000000000,22,36.0000000000,A01A3A,5,1552378385000
1552378408640.6201171875,22,35.4600000000,A01A3A,5,1552378385000
1552378408656.2500000000,22,35.3200000000,A01A3A,5,1552378385000
1552378408671.8798828125,22,35.6900000000,A01A3A,5,1552378385000
1552378408687.5000000000,22,36.6300000000,A01A3A,5,1552378385000
1552378408703.1201171875,22,38.1000000000,A01A3A,5,1552378385000
1552378408718.7500000000,22,39.9700000000,A01A3A,5,1552378385000
1552378408734.3798828125,22,42.0500000000,A01A3A,5,1552378385000
1552378408750.0000000000,22,44.1100000000,A01A3A,5,1552378385000
1552378408765.6201171875,22,45.9100000000,A01A3A,5,1552378385000
1552378408781.2500000000,22,47.2500000000,A01A3A,5,1552378385000
1552378408796.8798828125,22,47.9000000000,A01A3A,5,1552378385000
1552378408812.5000000000,22,47.6900000000,A01A3A,5,1552378385000
1552378408828.1201171875,22,46.4400000000,A01A3A,5,1552378385000
1552378408843.7500000000,22,44.1000000000,A01A3A,5,1552378385000
1552378408859.3798828125,22,40.7200000000,A01A3A,5,1552378385000
1552378408875.0000000000,22,36.5600000000,A01A3A,5,1552378385000
1552378408890.6201171875,22,31.9200000000,A01A3A,5,1552378385000
1552378408906.2500000000,22,27.1000000000,A01A3A,5,1552378385000
1552378408921.8798828125,22,22.3100000000,A01A3A,5,1552378385000
1552378408937.5000000000,22,17.6400000000,A01A3A,5,1552378385000
1552378408953.1201171875,22,13.2000000000,A01A3A,5,1552378385000
1552378408968.7500000000,22,9.1100000000,A01A3A,5,1552378385000
1552378408984.3798828125,22,5.5300000000,A01A3A,5,1552378385000
1552378409000.0000000000,22,2.5800000000,A01A3A,5,1552378385000
1552378409015.6201171875,22,0.2300000000,A01A3A,5,1552378385000
1552378409031.2500000000,22,-1.8000000000,A01A3A,5,1552378385000
1552378409046.8798828125,22,-3.8400000000,A01A3A,5,1552378385000
1552378409062.5000000000,22,-6.2400000000,A01A3A,5,1552378385000
1552378409078.1201171875,22,-9.1400000000,A01A3A,5,1552378385000
1552378409093.7500000000,22,-12.4300000000,A01A3A,5,1552378385000
1552378409109.3798828125,22,-15.8700000000,A01A3A,5,1552378385000
1552378409125.0000000000,22,-19.2200000000,A01A3A,5,1552378385000
1552378409140.6201171875,22,-22.4700000000,A01A3A,5,1552378385000
1552378409156.2500000000,22,-25.7900000000,A01A3A,5,1552378385000
1552378409171.8798828125,22,-29.5500000000,A01A3A,5,1552378385000
1552378409187.5000000000,22,-34.2300000000,A01A3A,5,1552378385000
1552378409203.1201171875,22,-40.2200000000,A01A3A,5,1552378385000
1552378409218.7500000000,22,-47.7000000000,A01A3A,5,1552378385000
1552378409234.3798828125,22,-56.4200000000,A01A3A,5,1552378385000
1552378409250.0000000000,22,-65.5500000000,A01A3A,5,1552378385000
1552378409265.6201171875,22,-73.6300000000,A01A3A,5,1552378385000
1552378409281.2500000000,22,-78.7900000000,A01A3A,5,1552378385000
1552378409296.8798828125,22,-79.2700000000,A01A3A,5,1552378385000
1552378409312.5000000000,22,-73.9700000000,A01A3A,5,1552378385000
1552378409328.1201171875,22,-62.9300000000,A01A3A,5,1552378385000
1552378409343.7500000000,22,-47.4400000000,A01A3A,5,1552378385000
1552378409359.3798828125,22,-29.6900000000,A01A3A,5,1552378385000
1552378409375.0000000000,22,-12.1500000000,A01A3A,5,1552378385000
1552378409390.6201171875,22,3.1600000000,A01A3A,5,1552378385000
1552378409406.2500000000,22,15.0700000000,A01A3A,5,1552378385000
1552378409421.8798828125,22,23.3600000000,A01A3A,5,1552378385000
1552378409437.5000000000,22,28.5100000000,A01A3A,5,1552378385000
1552378409453.1201171875,22,31.2700000000,A01A3A,5,1552378385000
1552378409468.7500000000,22,32.3900000000,A01A3A,5,1552378385000
1552378409484.3798828125,22,32.3800000000,A01A3A,5,1552378385000
1552378409500.0000000000,22,31.5600000000,A01A3A,5,1552378385000
1552378409515.6201171875,22,30.1800000000,A01A3A,5,1552378385000
1552378409531.2500000000,22,28.5200000000,A01A3A,5,1552378385000
1552378409546.8798828125,22,26.9800000000,A01A3A,5,1552378385000
1552378409562.5000000000,22,26.0000000000,A01A3A,5,1552378385000
1552378409578.1201171875,22,25.9700000000,A01A3A,5,1552378385000
1552378409593.7500000000,22,27.0600000000,A01A3A,5,1552378385000
1552378409609.3798828125,22,29.1100000000,A01A3A,5,1552378385000
1552378409625.0000000000,22,31.7500000000,A01A3A,5,1552378385000
1552378409640.6201171875,22,34.4700000000,A01A3A,5,1552378385000
1552378409656.2500000000,22,36.8600000000,A01A3A,5,1552378385000
1552378409671.8798828125,22,38.7100000000,A01A3A,5,1552378385000
1552378409687.5000000000,22,40.0000000000,A01A3A,5,1552378385000
1552378409703.1201171875,22,40.7500000000,A01A3A,5,1552378385000
1552378409718.7500000000,22,40.8900000000,A01A3A,5,1552378385000
1552378409734.3798828125,22,40.1300000000,A01A3A,5,1552378385000
1552378409750.0000000000,22,38.0600000000,A01A3A,5,1552378385000
1552378409765.6201171875,22,34.3500000000,A01A3A,5,1552378385000
1552378409781.2500000000,22,29.0200000000,A01A3A,5,1552378385000
1552378409796.8798828125,22,22.5600000000,A01A3A,5,1552378385000
1552378409812.5000000000,22,15.9000000000,A01A3A,5,1552378385000
1552378409828.1201171875,22,10.0900000000,A01A3A,5,1552378385000
1552378409843.7500000000,22,5.8400000000,A01A3A,5,1552378385000
1552378409859.3798828125,22,3.1900000000,A01A3A,5,1552378385000
1552378409875.0000000000,22,1.5100000000,A01A3A,5,1552378385000
1552378409890.6201171875,22,-0.2700000000,A01A3A,5,1552378385000
1552378409906.2500000000,22,-3.0900000000,A01A3A,5,1552378385000
1552378409921.8798828125,22,-7.2900000000,A01A3A,5,1552378385000
1552378409937.5000000000,22,-12.5100000000,A01A3A,5,1552378385000
1552378409953.1201171875,22,-17.8400000000,A01A3A,5,1552378385000
1552378409968.7500000000,22,-22.4200000000,A01A3A,5,1552378385000
1552378409984.3798828125,22,-25.8400000000,A01A3A,5,1552378385000
1552378410000.0000000000,22,-28.3300000000,A01A3A,5,1552378385000
1552378410015.6201171875,22,-30.6600000000,A01A3A,5,1552378385000
1552378410031.2500000000,22,-33.7600000000,A01A3A,5,1552378385000
1552378410046.8798828125,22,-38.3700000000,A01A3A,5,1552378385000
1552378410062.5000000000,22,-44.7800000000,A01A3A,5,1552378385000
1552378410078.1201171875,22,-52.7400000000,A01A3A,5,1552378385000
1552378410093.7500000000,22,-61.3900000000,A01A3A,5,1552378385000
1552378410109.3798828125,22,-69.3100000000,A01A3A,5,1552378385000
1552378410125.0000000000,22,-74.6800000000,A01A3A,5,1552378385000
1552378410140.6201171875,22,-75.6400000000,A01A3A,5,1552378385000
1552378410156.2500000000,22,-70.9100000000,A01A3A,5,1552378385000
1552378410171.8798828125,22,-60.2700000000,A01A3A,5,1552378385000
1552378410187.5000000000,22,-44.8200000000,A01A3A,5,1552378385000
1552378410203.1201171875,22,-26.7500000000,A01A3A,5,1552378385000
1552378410218.7500000000,22,-8.6900000000,A01A3A,5,1552378385000
1552378410234.3798828125,22,7.0800000000,A01A3A,5,1552378385000
1552378410250.0000000000,22,19.2200000000,A01A3A,5,1552378385000
1552378410265.6201171875,22,27.5300000000,A01A3A,5,1552378385000
1552378410281.2500000000,22,32.5500000000,A01A3A,5,1552378385000
1552378410296.8798828125,22,35.2000000000,A01A3A,5,1552378385000
1552378410312.5000000000,22,36.2500000000,A01A3A,5,1552378385000
1552378410328.1201171875,22,36.2200000000,A01A3A,5,1552378385000
1552378410343.7500000000,22,35.4000000000,A01A3A,5,1552378385000
1552378410359.3798828125,22,33.9800000000,A01A3A,5,1552378385000
1552378410375.0000000000,22,32.2300000000,A01A3A,5,1552378385000
1552378410390.6201171875,22,30.4800000000,A01A3A,5,1552378385000
1552378410406.2500000000,22,29.1500000000,A01A3A,5,1552378385000
1552378410421.8798828125,22,28.5800000000,A01A3A,5,1552378385000
1552378410437.5000000000,22,28.9900000000,A01A3A,5,1552378385000
1552378410453.1201171875,22,30.3900000000,A01A3A,5,1552378385000
1552378410468.7500000000,22,32.6200000000,A01A3A,5,1552378385000
1552378410484.3798828125,22,35.3100000000,A01A3A,5,1552378385000
1552378410500.0000000000,22,38.0200000000,A01A3A,5,1552378385000
1552378410515.6201171875,22,40.3300000000,A01A3A,5,1552378385000
1552378410531.2500000000,22,41.9300000000,A01A3A,5,1552378385000
1552378410546.8798828125,22,42.6500000000,A01A3A,5,1552378385000
1552378410562.5000000000,22,42.4200000000,A01A3A,5,1552378385000
1552378410578.1201171875,22,41.2500000000,A01A3A,5,1552378385000
1552378410593.7500000000,22,39.1800000000,A01A3A,5,1552378385000
1552378410609.3798828125,22,36.2900000000,A01A3A,5,1552378385000
1552378410625.0000000000,22,32.7000000000,A01A3A,5,1552378385000
1552378410640.6201171875,22,28.6200000000,A01A3A,5,1552378385000
1552378410656.2500000000,22,24.2600000000,A01A3A,5,1552378385000
1552378410671.8798828125,22,19.8400000000,A01A3A,5,1552378385000
1552378410687.5000000000,22,15.4800000000,A01A3A,5,1552378385000
1552378410703.1201171875,22,11.2400000000,A01A3A,5,1552378385000
1552378410718.7500000000,22,7.1700000000,A01A3A,5,1552378385000
1552378410734.3798828125,22,3.3000000000,A01A3A,5,1552378385000
1552378410750.0000000000,22,-0.2900000000,A01A3A,5,1552378385000
1552378410765.6201171875,22,-3.5800000000,A01A3A,5,1552378385000
1552378410781.2500000000,22,-6.5900000000,A01A3A,5,1552378385000
1552378410796.8798828125,22,-9.4400000000,A01A3A,5,1552378385000
1552378410812.5000000000,22,-12.3000000000,A01A3A,5,1552378385000
1552378410828.1201171875,22,-15.3200000000,A01A3A,5,1552378385000
1552378410843.7500000000,22,-18.6100000000,A01A3A,5,1552378385000
1552378410859.3798828125,22,-22.1400000000,A01A3A,5,1552378385000
1552378410875.0000000000,22,-25.8300000000,A01A3A,5,1552378385000
1552378410890.6201171875,22,-29.5400000000,A01A3A,5,1552378385000
1552378410906.2500000000,22,-33.2100000000,A01A3A,5,1552378385000
1552378410921.8798828125,22,-36.8600000000,A01A3A,5,1552378385000
1552378410937.5000000000,22,-40.6600000000,A01A3A,5,1552378385000
1552378410953.1201171875,22,-44.8800000000,A01A3A,5,1552378385000
1552378410968.7500000000,22,-49.8800000000,A01A3A,5,1552378385000
1552378410984.3798828125,22,-55.9800000000,A01A3A,5,1552378385000
1552378411000.0000000000,22,-63.2500000000,A01A3A,5,1552378385000
1552378411015.6201171875,22,-71.3200000000,A01A3A,5,1552378385000
1552378411031.2500000000,22,-79.1400000000,A01A3A,5,1552378385000
1552378411046.8798828125,22,-85.0700000000,A01A3A,5,1552378385000
1552378411062.5000000000,22,-87.1500000000,A01A3A,5,1552378385000
1552378411078.1201171875,22,-83.6400000000,A01A3A,5,1552378385000
1552378411093.7500000000,22,-73.7600000000,A01A3A,5,1552378385000
1552378411109.3798828125,22,-58.0800000000,A01A3A,5,1552378385000
1552378411125.0000000000,22,-38.5900000000,A01A3A,5,1552378385000
1552378411140.6201171875,22,-18.0900000000,A01A3A,5,1552378385000
1552378411156.2500000000,22,0.6000000000,A01A3A,5,1552378385000
1552378411171.8798828125,22,15.5300000000,A01A3A,5,1552378385000
1552378411187.5000000000,22,26.0100000000,A01A3A,5,1552378385000
1552378411203.1201171875,22,32.5100000000,A01A3A,5,1552378385000
1552378411218.7500000000,22,36.1200000000,A01A3A,5,1552378385000
1552378411234.3798828125,22,37.9400000000,A01A3A,5,1552378385000
1552378411250.0000000000,22,38.6400000000,A01A3A,5,1552378385000
1552378411265.6201171875,22,38.4700000000,A01A3A,5,1552378385000
1552378411281.2500000000,22,37.5100000000,A01A3A,5,1552378385000
1552378411296.8798828125,22,35.9300000000,A01A3A,5,1552378385000
1552378411312.5000000000,22,34.2100000000,A01A3A,5,1552378385000
1552378411328.1201171875,22,33.0100000000,A01A3A,5,1552378385000
1552378411343.7500000000,22,32.8700000000,A01A3A,5,1552378385000
1552378411359.3798828125,22,34.0300000000,A01A3A,5,1552378385000
1552378411375.0000000000,22,36.3200000000,A01A3A,5,1552378385000
1552378411390.6201171875,22,39.2300000000,A01A3A,5,1552378385000
1552378411406.2500000000,22,42.1300000000,A01A3A,5,1552378385000
1552378411421.8798828125,22,44.5500000000,A01A3A,5,1552378385000
1552378411437.5000000000,22,46.2200000000,A01A3A,5,1552378385000
1552378411453.1201171875,22,47.2100000000,A01A3A,5,1552378385000
1552378411468.7500000000,22,47.7000000000,A01A3A,5,1552378385000
1552378411484.3798828125,22,47.7900000000,A01A3A,5,1552378385000
1552378411500.0000000000,22,47.3300000000,A01A3A,5,1552378385000
1552378411515.6201171875,22,45.9800000000,A01A3A,5,1552378385000
1552378411531.2500000000,22,43.3800000000,A01A3A,5,1552378385000
1552378411546.8798828125,22,39.4300000000,A01A3A,5,1552378385000
1552378411562.5000000000,22,34.5000000000,A01A3A,5,1552378385000
1552378411578.1201171875,22,29.3400000000,A01A3A,5,1552378385000
1552378411593.7500000000,22,24.7700000000,A01A3A,5,1552378385000
1552378411609.3798828125,22,21.3300000000,A01A3A,5,1552378385000
1552378411625.0000000000,22,19.0300000000,A01A3A,5,1552378385000
1552378411640.6201171875,22,17.3200000000,A01A3A,5,1552378385000
1552378411656.2500000000,22,15.4700000000,A01A3A,5,1552378385000
1552378411671.8798828125,22,12.8800000000,A01A3A,5,1552378385000
1552378411687.5000000000,22,9.4300000000,A01A3A,5,1552378385000
1552378411703.1201171875,22,5.4900000000,A01A3A,5,1552378385000
1552378411718.7500000000,22,1.6900000000,A01A3A,5,1552378385000
1552378411734.3798828125,22,-1.4000000000,A01A3A,5,1552378385000
1552378411750.0000000000,22,-3.5700000000,A01A3A,5,1552378385000
1552378411765.6201171875,22,-5.1100000000,A01A3A,5,1552378385000
1552378411781.2500000000,22,-6.6600000000,A01A3A,5,1552378385000
1552378411796.8798828125,22,-8.9600000000,A01A3A,5,1552378385000
1552378411812.5000000000,22,-12.5100000000,A01A3A,5,1552378385000
1552378411828.1201171875,22,-17.3900000000,A01A3A,5,1552378385000
1552378411843.7500000000,22,-23.2100000000,A01A3A,5,1552378385000
1552378411859.3798828125,22,-29.3000000000,A01A3A,5,1552378385000
1552378411875.0000000000,22,-34.9500000000,A01A3A,5,1552378385000
1552378411890.6201171875,22,-39.7400000000,A01A3A,5,1552378385000
1552378411906.2500000000,22,-43.6900000000,A01A3A,5,1552378385000
1552378411921.8798828125,22,-47.2200000000,A01A3A,5,1552378385000
1552378411937.5000000000,22,-51.0300000000,A01A3A,5,1552378385000
1552378411953.1201171875,22,-55.8700000000,A01A3A,5,1552378385000
1552378411968.7500000000,22,-62.1600000000,A01A3A,5,1552378385000
1552378411984.3798828125,22,-69.7900000000,A01A3A,5,1552378385000
1552378412000.0000000000,22,-77.8200000000,A01A3A,5,1552378385000
1552378412015.6201171875,22,-84.5800000000,A01A3A,5,1552378385000
1552378412031.2500000000,22,-88.0100000000,A01A3A,5,1552378385000
1552378412046.8798828125,22,-86.1800000000,A01A3A,5,1552378385000
1552378412062.5000000000,22,-78.0600000000,A01A3A,5,1552378385000
1552378412078.1201171875,22,-63.9100000000,A01A3A,5,1552378385000
1552378412093.7500000000,22,-45.3800000000,A01A3A,5,1552378385000
1552378412109.3798828125,22,-25.0000000000,A01A3A,5,1552378385000
1552378412125.0000000000,22,-5.5000000000,A01A3A,5,1552378385000
1552378412140.6201171875,22,10.9500000000,A01A3A,5,1552378385000
1552378412156.2500000000,22,23.2200000000,A01A3A,5,1552378385000
1552378412171.8798828125,22,31.2400000000,A01A3A,5,1552378385000
1552378412187.5000000000,22,35.6900000000,A01A3A,5,1552378385000
1552378412203.1201171875,22,37.6100000000,A01A3A,5,1552378385000
1552378412218.7500000000,22,37.9700000000,A01A3A,5,1552378385000
1552378412234.3798828125,22,37.4700000000,A01A3A,5,1552378385000
1552378412250.0000000000,22,36.5400000000,A01A3A,5,1552378385000
1552378412265.6201171875,22,35.4400000000,A01A3A,5,1552378385000
1552378412281.2500000000,22,34.3300000000,A01A3A,5,1552378385000
1552378412296.8798828125,22,33.4100000000,A01A3A,5,1552378385000
1552378412312.5000000000,22,32.9200000000,A01A3A,5,1552378385000
1552378412328.1201171875,22,32.9900000000,A01A3A,5,1552378385000
1552378412343.7500000000,22,33.7100000000,A01A3A,5,1552378385000
1552378412359.3798828125,22,34.9800000000,A01A3A,5,1552378385000
1552378412375.0000000000,22,36.5700000000,A01A3A,5,1552378385000
1552378412390.6201171875,22,38.2400000000,A01A3A,5,1552378385000
1552378412406.2500000000,22,39.7700000000,A01A3A,5,1552378385000
1552378412421.8798828125,22,41.0000000000,A01A3A,5,1552378385000
1552378412437.5000000000,22,41.8200000000,A01A3A,5,1552378385000
1552378412453.1201171875,22,42.1000000000,A01A3A,5,1552378385000
1552378412468.7500000000,22,41.6800000000,A01A3A,5,1552378385000
1552378412484.3798828125,22,40.4100000000,A01A3A,5,1552378385000
1552378412500.0000000000,22,38.2600000000,A01A3A,5,1552378385000
1552378412515.6201171875,22,35.2800000000,A01A3A,5,1552378385000
1552378412531.2500000000,22,31.6800000000,A01A3A,5,1552378385000
1552378412546.8798828125,22,27.6600000000,A01A3A,5,1552378385000
1552378412562.5000000000,22,23.4200000000,A01A3A,5,1552378385000
1552378412578.1201171875,22,19.1400000000,A01A3A,5,1552378385000
1552378412593.7500000000,22,14.9900000000,A01A3A,5,1552378385000
1552378412609.3798828125,22,11.1200000000,A01A3A,5,1552378385000
1552378412625.0000000000,22,7.7000000000,A01A3A,5,1552378385000
1552378412640.6201171875,22,4.8100000000,A01A3A,5,1552378385000
1552378412656.2500000000,22,2.3800000000,A01A3A,5,1552378385000
1552378412671.8798828125,22,0.1900000000,A01A3A,5,1552378385000
1552378412687.5000000000,22,-2.0400000000,A01A3A,5,1552378385000
1552378412703.1201171875,22,-4.5300000000,A01A3A,5,1552378385000
1552378412718.7500000000,22,-7.3500000000,A01A3A,5,1552378385000
1552378412734.3798828125,22,-10.3700000000,A01A3A,5,1552378385000
1552378412750.0000000000,22,-13.3600000000,A01A3A,5,1552378385000
1552378412765.6201171875,22,-16.1500000000,A01A3A,5,1552378385000
1552378412781.2500000000,22,-18.6700000000,A01A3A,5,1552378385000
1552378412796.8798828125,22,-21.0700000000,A01A3A,5,1552378385000
1552378412812.5000000000,22,-23.5500000000,A01A3A,5,1552378385000
1552378412828.1201171875,22,-26.3600000000,A01A3A,5,1552378385000
1552378412843.7500000000,22,-29.6700000000,A01A3A,5,1552378385000
1552378412859.3798828125,22,-33.6600000000,A01A3A,5,1552378385000
1552378412875.0000000000,22,-38.5600000000,A01A3A,5,1552378385000
1552378412890.6201171875,22,-44.5600000000,A01A3A,5,1552378385000
1552378412906.2500000000,22,-51.6600000000,A01A3A,5,1552378385000
1552378412921.8798828125,22,-59.2700000000,A01A3A,5,1552378385000
1552378412937.5000000000,22,-66.1300000000,A01A3A,5,1552378385000
1552378412953.1201171875,22,-70.4000000000,A01A3A,5,1552378385000
1552378412968.7500000000,22,-70.2300000000,A01A3A,5,1552378385000
1552378412984.3798828125,22,-64.4200000000,A01A3A,5,1552378385000
1552378413000.0000000000,22,-53.0200000000,A01A3A,5,1552378385000
1552378413015.6201171875,22,-37.4800000000,A01A3A,5,1552378385000
1552378413031.2500000000,22,-20.1500000000,A01A3A,5,1552378385000
1552378413046.8798828125,22,-3.6100000000,A01A3A,5,1552378385000
1552378413062.5000000000,22,10.1700000000,A01A3A,5,1552378385000
1552378413078.1201171875,22,20.2300000000,A01A3A,5,1552378385000
1552378413093.7500000000,22,26.5800000000,A01A3A,5,1552378385000
1552378413109.3798828125,22,29.9100000000,A01A3A,5,1552378385000
1552378413125.0000000000,22,31.0600000000,A01A3A,5,1552378385000
1552378413140.6201171875,22,30.6900000000,A01A3A,5,1552378385000
1552378413156.2500000000,22,29.2300000000,A01A3A,5,1552378385000
1552378413171.8798828125,22,27.0000000000,A01A3A,5,1552378385000
1552378413187.5000000000,22,24.3400000000,A01A3A,5,1552378385000
1552378413203.1201171875,22,21.7700000000,A01A3A,5,1552378385000
1552378413218.7500000000,22,19.8600000000,A01A3A,5,1552378385000
1552378413234.3798828125,22,19.1400000000,A01A3A,5,1552378385000
1552378413250.0000000000,22,19.8500000000,A01A3A,5,1552378385000
1552378413265.6201171875,22,21.8400000000,A01A3A,5,1552378385000
1552378413281.2500000000,22,24.6700000000,A01A3A,5,1552378385000
1552378413296.8798828125,22,27.7300000000,A01A3A,5,1552378385000
1552378413312.5000000000,22,30.5500000000,A01A3A,5,1552378385000
1552378413328.1201171875,22,32.8700000000,A01A3A,5,1552378385000
1552378413343.7500000000,22,34.7100000000,A01A3A,5,1552378385000
1552378413359.3798828125,22,36.1900000000,A01A3A,5,1552378385000
1552378413375.0000000000,22,37.2900000000,A01A3A,5,1552378385000
1552378413390.6201171875,22,37.7800000000,A01A3A,5,1552378385000
1552378413406.2500000000,22,37.2000000000,A01A3A,5,1552378385000
1552378413421.8798828125,22,35.1100000000,A01A3A,5,1552378385000
1552378413437.5000000000,22,31.2900000000,A01A3A,5,1552378385000
1552378413453.1201171875,22,25.9200000000,A01A3A,5,1552378385000
1552378413468.7500000000,22,19.6000000000,A01A3A,5,1552378385000
1552378413484.3798828125,22,13.1300000000,A01A3A,5,1552378385000
1552378413500.0000000000,22,7.3200000000,A01A3A,5,1552378385000
1552378413515.6201171875,22,2.6200000000,A01A3A,5,1552378385000
1552378413531.2500000000,22,-0.8900000000,A01A3A,5,1552378385000
1552378413546.8798828125,22,-3.6400000000,A01A3A,5,1552378385000
1552378413562.5000000000,22,-6.2200000000,A01A3A,5,1552378385000
1552378413578.1201171875,22,-9.2000000000,A01A3A,5,1552378385000
1552378413593.7500000000,22,-12.8400000000,A01A3A,5,1552378385000
1552378413609.3798828125,22,-17.0100000000,A01A3A,5,1552378385000
1552378413625.0000000000,22,-21.2900000000,A01A3A,5,1552378385000
1552378413640.6201171875,22,-25.1500000000,A01A3A,5,1552378385000
1552378413656.2500000000,22,-28.2500000000,A01A3A,5,1552378385000
1552378413671.8798828125,22,-30.5200000000,A01A3A,5,1552378385000
1552378413687.5000000000,22,-32.2700000000,A01A3A,5,1552378385000
1552378413703.1201171875,22,-34.0700000000,A01A3A,5,1552378385000
1552378413718.7500000000,22,-36.6000000000,A01A3A,5,1552378385000
