timestamp,pid,value,device_serial,device_number,entry_time
1552029657000.0000000000,17,0E-10,A01BBE,5,1552029657000
1552029657015.6201171875,17,0E-10,A01BBE,5,1552029657000
1552029657031.2500000000,17,0E-10,A01BBE,5,1552029657000
1552029657046.8798828125,17,0E-10,A01BBE,5,1552029657000
1552029657062.5000000000,17,0E-10,A01BBE,5,1552029657000
1552029657078.1201171875,17,0E-10,A01BBE,5,1552029657000
1552029657093.7500000000,17,0E-10,A01BBE,5,1552029657000
1552029657109.3798828125,17,0E-10,A01BBE,5,1552029657000
1552029657125.0000000000,17,0E-10,A01BBE,5,1552029657000
1552029657140.6201171875,17,0E-10,A01BBE,5,1552029657000
1552029657156.2500000000,17,0E-10,A01BBE,5,1552029657000
1552029657171.8798828125,17,0.0100000000,A01BBE,5,1552029657000
1552029657187.5000000000,17,0.0100000000,A01BBE,5,1552029657000
1552029657203.1201171875,17,0E-10,A01BBE,5,1552029657000
1552029657218.7500000000,17,-0.0300000000,A01BBE,5,1552029657000
1552029657234.3798828125,17,-0.0500000000,A01BBE,5,1552029657000
1552029657250.0000000000,17,-0.0500000000,A01BBE,5,1552029657000
1552029657265.6201171875,17,0E-10,A01BBE,5,1552029657000
1552029657281.2500000000,17,0.1300000000,A01BBE,5,1552029657000
1552029657296.8798828125,17,0.3600000000,A01BBE,5,1552029657000
1552029657312.5000000000,17,0.6600000000,A01BBE,5,1552029657000
1552029657328.1201171875,17,1.0100000000,A01BBE,5,1552029657000
1552029657343.7500000000,17,1.3700000000,A01BBE,5,1552029657000
1552029657359.3798828125,17,1.7200000000,A01BBE,5,1552029657000
1552029657375.0000000000,17,2.0600000000,A01BBE,5,1552029657000
1552029657390.6201171875,17,2.4000000000,A01BBE,5,1552029657000
1552029657406.2500000000,17,2.7900000000,A01BBE,5,1552029657000
1552029657421.8798828125,17,3.2400000000,A01BBE,5,1552029657000
1552029657437.5000000000,17,3.8000000000,A01BBE,5,1552029657000
1552029657453.1201171875,17,4.4200000000,A01BBE,5,1552029657000
1552029657468.7500000000,17,5.0600000000,A01BBE,5,1552029657000
1552029657484.3798828125,17,5.6600000000,A01BBE,5,1552029657000
1552029657500.0000000000,17,6.2000000000,A01BBE,5,1552029657000
1552029657515.6201171875,17,6.6800000000,A01BBE,5,1552029657000
1552029657531.2500000000,17,7.1500000000,A01BBE,5,1552029657000
1552029657546.8798828125,17,7.6800000000,A01BBE,5,1552029657000
1552029657562.5000000000,17,8.3100000000,A01BBE,5,1552029657000
1552029657578.1201171875,17,9.1400000000,A01BBE,5,1552029657000
1552029657593.7500000000,17,10.0900000000,A01BBE,5,1552029657000
1552029657609.3798828125,17,11.0400000000,A01BBE,5,1552029657000
1552029657625.0000000000,17,11.8800000000,A01BBE,5,1552029657000
1552029657640.6201171875,17,12.5600000000,A01BBE,5,1552029657000
1552029657656.2500000000,17,13.1400000000,A01BBE,5,1552029657000
1552029657671.8798828125,17,13.7600000000,A01BBE,5,1552029657000
1552029657687.5000000000,17,14.6500000000,A01BBE,5,1552029657000
1552029657703.1201171875,17,15.9600000000,A01BBE,5,1552029657000
1552029657718.7500000000,17,17.9100000000,A01BBE,5,1552029657000
1552029657734.3798828125,17,20.3200000000,A01BBE,5,1552029657000
1552029657750.0000000000,17,22.9000000000,A01BBE,5,1552029657000
1552029657765.6201171875,17,25.3800000000,A01BBE,5,1552029657000
1552029657781.2500000000,17,27.5800000000,A01BBE,5,1552029657000
1552029657796.8798828125,17,29.5700000000,A01BBE,5,1552029657000
1552029657812.5000000000,17,31.6800000000,A01BBE,5,1552029657000
1552029657828.1201171875,17,34.3200000000,A01BBE,5,1552029657000
1552029657843.7500000000,17,37.8100000000,A01BBE,5,1552029657000
1552029657859.3798828125,17,42.5400000000,A01BBE,5,1552029657000
1552029657875.0000000000,17,48.1500000000,A01BBE,5,1552029657000
1552029657890.6201171875,17,54.1000000000,A01BBE,5,1552029657000
1552029657906.2500000000,17,59.8300000000,A01BBE,5,1552029657000
1552029657921.8798828125,17,64.9700000000,A01BBE,5,1552029657000
1552029657937.5000000000,17,69.5800000000,A01BBE,5,1552029657000
1552029657953.1201171875,17,74.1400000000,A01BBE,5,1552029657000
1552029657968.7500000000,17,79.3400000000,A01BBE,5,1552029657000
1552029657984.3798828125,17,85.7100000000,A01BBE,5,1552029657000
1552029658000.0000000000,17,93.7600000000,A01BBE,5,1552029657000
1552029658015.6201171875,17,103.0000000000,A01BBE,5,1552029657000
1552029658031.2500000000,17,112.6200000000,A01BBE,5,1552029657000
1552029658046.8798828125,17,121.7300000000,A01BBE,5,1552029657000
1552029658062.5000000000,17,129.7700000000,A01BBE,5,1552029657000
1552029658078.1201171875,17,136.7500000000,A01BBE,5,1552029657000
1552029658093.7500000000,17,143.3000000000,A01BBE,5,1552029657000
1552029658109.3798828125,17,150.7500000000,A01BBE,5,1552029657000
1552029658125.0000000000,17,157.7700000000,A01BBE,5,1552029657000
1552029658140.6201171875,17,166.6400000000,A01BBE,5,1552029657000
1552029658156.2500000000,17,177.9500000000,A01BBE,5,1552029657000
1552029658171.8798828125,17,191.7900000000,A01BBE,5,1552029657000
1552029658187.5000000000,17,206.9700000000,A01BBE,5,1552029657000
1552029658203.1201171875,17,220.5700000000,A01BBE,5,1552029657000
1552029658218.7500000000,17,228.2500000000,A01BBE,5,1552029657000
1552029658234.3798828125,17,225.3600000000,A01BBE,5,1552029657000
1552029658250.0000000000,17,208.5300000000,A01BBE,5,1552029657000
1552029658265.6201171875,17,176.8700000000,A01BBE,5,1552029657000
1552029658281.2500000000,17,132.7600000000,A01BBE,5,1552029657000
1552029658296.8798828125,17,80.0500000000,A01BBE,5,1552029657000
1552029658312.5000000000,17,23.0700000000,A01BBE,5,1552029657000
1552029658328.1201171875,17,-34.9400000000,A01BBE,5,1552029657000
1552029658343.7500000000,17,-92.4400000000,A01BBE,5,1552029657000
1552029658359.3798828125,17,-149.1600000000,A01BBE,5,1552029657000
1552029658375.0000000000,17,-205.2300000000,A01BBE,5,1552029657000
1552029658390.6201171875,17,-260.3700000000,A01BBE,5,1552029657000
1552029658406.2500000000,17,-313.7400000000,A01BBE,5,1552029657000
1552029658421.8798828125,17,-363.8700000000,A01BBE,5,1552029657000
1552029658437.5000000000,17,-409.8300000000,A01BBE,5,1552029657000
1552029658453.1201171875,17,-450.9100000000,A01BBE,5,1552029657000
1552029658468.7500000000,17,-486.5000000000,A01BBE,5,1552029657000
1552029658484.3798828125,17,-515.7400000000,A01BBE,5,1552029657000
1552029658500.0000000000,17,-537.2300000000,A01BBE,5,1552029657000
1552029658515.6201171875,17,-549.2200000000,A01BBE,5,1552029657000
1552029658531.2500000000,17,-549.9600000000,A01BBE,5,1552029657000
1552029658546.8798828125,17,-538.3700000000,A01BBE,5,1552029657000
1552029658562.5000000000,17,-514.2100000000,A01BBE,5,1552029657000
1552029658578.1201171875,17,-478.6700000000,A01BBE,5,1552029657000
1552029658593.7500000000,17,-433.8800000000,A01BBE,5,1552029657000
1552029658609.3798828125,17,-382.4500000000,A01BBE,5,1552029657000
1552029658625.0000000000,17,-327.0200000000,A01BBE,5,1552029657000
1552029658640.6201171875,17,-269.8400000000,A01BBE,5,1552029657000
1552029658656.2500000000,17,-212.6300000000,A01BBE,5,1552029657000
1552029658671.8798828125,17,-156.6600000000,A01BBE,5,1552029657000
1552029658687.5000000000,17,-102.9500000000,A01BBE,5,1552029657000
1552029658703.1201171875,17,-52.3700000000,A01BBE,5,1552029657000
1552029658718.7500000000,17,-5.9000000000,A01BBE,5,1552029657000
1552029658734.3798828125,17,35.5800000000,A01BBE,5,1552029657000
1552029658750.0000000000,17,71.4300000000,A01BBE,5,1552029657000
1552029658765.6201171875,17,101.3500000000,A01BBE,5,1552029657000
1552029658781.2500000000,17,125.5000000000,A01BBE,5,1552029657000
1552029658796.8798828125,17,144.3800000000,A01BBE,5,1552029657000
1552029658812.5000000000,17,158.6900000000,A01BBE,5,1552029657000
1552029658828.1201171875,17,169.1500000000,A01BBE,5,1552029657000
1552029658843.7500000000,17,176.3700000000,A01BBE,5,1552029657000
1552029658859.3798828125,17,180.7500000000,A01BBE,5,1552029657000
1552029658875.0000000000,17,182.5700000000,A01BBE,5,1552029657000
1552029658890.6201171875,17,182.0700000000,A01BBE,5,1552029657000
1552029658906.2500000000,17,179.5100000000,A01BBE,5,1552029657000
1552029658921.8798828125,17,175.2300000000,A01BBE,5,1552029657000
1552029658937.5000000000,17,169.6500000000,A01BBE,5,1552029657000
1552029658953.1201171875,17,163.1800000000,A01BBE,5,1552029657000
1552029658968.7500000000,17,156.1500000000,A01BBE,5,1552029657000
1552029658984.3798828125,17,148.8100000000,A01BBE,5,1552029657000
1552029659000.0000000000,17,141.3000000000,A01BBE,5,1552029657000
1552029659015.6201171875,17,133.6900000000,A01BBE,5,1552029657000
1552029659031.2500000000,17,126.0200000000,A01BBE,5,1552029657000
1552029659046.8798828125,17,118.3300000000,A01BBE,5,1552029657000
1552029659062.5000000000,17,110.6900000000,A01BBE,5,1552029657000
1552029659078.1201171875,17,103.1600000000,A01BBE,5,1552029657000
1552029659093.7500000000,17,95.8000000000,A01BBE,5,1552029657000
1552029659109.3798828125,17,88.6800000000,A01BBE,5,1552029657000
1552029659125.0000000000,17,81.8300000000,A01BBE,5,1552029657000
1552029659140.6201171875,17,75.2500000000,A01BBE,5,1552029657000
1552029659156.2500000000,17,68.9500000000,A01BBE,5,1552029657000
1552029659171.8798828125,17,62.9500000000,A01BBE,5,1552029657000
1552029659187.5000000000,17,57.2500000000,A01BBE,5,1552029657000
1552029659203.1201171875,17,51.8600000000,A01BBE,5,1552029657000
1552029659218.7500000000,17,46.7800000000,A01BBE,5,1552029657000
1552029659234.3798828125,17,42.0300000000,A01BBE,5,1552029657000
1552029659250.0000000000,17,37.5900000000,A01BBE,5,1552029657000
1552029659265.6201171875,17,33.4500000000,A01BBE,5,1552029657000
1552029659281.2500000000,17,29.6100000000,A01BBE,5,1552029657000
1552029659296.8798828125,17,26.0700000000,A01BBE,5,1552029657000
1552029659312.5000000000,17,22.8100000000,A01BBE,5,1552029657000
1552029659328.1201171875,17,19.8300000000,A01BBE,5,1552029657000
1552029659343.7500000000,17,17.1100000000,A01BBE,5,1552029657000
1552029659359.3798828125,17,14.6700000000,A01BBE,5,1552029657000
1552029659375.0000000000,17,12.4800000000,A01BBE,5,1552029657000
1552029659390.6201171875,17,10.5400000000,A01BBE,5,1552029657000
1552029659406.2500000000,17,8.8300000000,A01BBE,5,1552029657000
1552029659421.8798828125,17,7.3500000000,A01BBE,5,1552029657000
1552029659437.5000000000,17,6.0700000000,A01BBE,5,1552029657000
1552029659453.1201171875,17,4.9700000000,A01BBE,5,1552029657000
1552029659468.7500000000,17,4.0500000000,A01BBE,5,1552029657000
1552029659484.3798828125,17,3.2700000000,A01BBE,5,1552029657000
1552029659500.0000000000,17,2.6200000000,A01BBE,5,1552029657000
1552029659515.6201171875,17,2.0900000000,A01BBE,5,1552029657000
1552029659531.2500000000,17,1.6500000000,A01BBE,5,1552029657000
1552029659546.8798828125,17,1.3000000000,A01BBE,5,1552029657000
1552029659562.5000000000,17,1.0100000000,A01BBE,5,1552029657000
1552029659578.1201171875,17,0.7800000000,A01BBE,5,1552029657000
1552029659593.7500000000,17,0.6100000000,A01BBE,5,1552029657000
1552029659609.3798828125,17,0.4800000000,A01BBE,5,1552029657000
1552029659625.0000000000,17,0.3900000000,A01BBE,5,1552029657000
1552029659640.6201171875,17,0.3300000000,A01BBE,5,1552029657000
1552029659656.2500000000,17,0.2800000000,A01BBE,5,1552029657000
1552029659671.8798828125,17,0.2200000000,A01BBE,5,1552029657000
1552029659687.5000000000,17,0.1400000000,A01BBE,5,1552029657000
1552029659703.1201171875,17,0.0400000000,A01BBE,5,1552029657000
1552029659718.7500000000,17,-0.0700000000,A01BBE,5,1552029657000
1552029659734.3798828125,17,-0.1500000000,A01BBE,5,1552029657000
1552029659750.0000000000,17,-0.1900000000,A01BBE,5,1552029657000
1552029659765.6201171875,17,-0.1800000000,A01BBE,5,1552029657000
1552029659781.2500000000,17,-0.1400000000,A01BBE,5,1552029657000
1552029659796.8798828125,17,-0.0800000000,A01BBE,5,1552029657000
1552029659812.5000000000,17,-0.0500000000,A01BBE,5,1552029657000
1552029659828.1201171875,17,-0.0600000000,A01BBE,5,1552029657000
1552029659843.7500000000,17,-0.1200000000,A01BBE,5,1552029657000
1552029659859.3798828125,17,-0.1900000000,A01BBE,5,1552029657000
1552029659875.0000000000,17,-0.2400000000,A01BBE,5,1552029657000
1552029659890.6201171875,17,-0.2400000000,A01BBE,5,1552029657000
1552029659906.2500000000,17,-0.1900000000,A01BBE,5,1552029657000
1552029659921.8798828125,17,-0.0900000000,A01BBE,5,1552029657000
1552029659937.5000000000,17,-0.0100000000,A01BBE,5,1552029657000
1552029659953.1201171875,17,0.0100000000,A01BBE,5,1552029657000
1552029659968.7500000000,17,-0.0700000000,A01BBE,5,1552029657000
1552029659984.3798828125,17,-0.2400000000,A01BBE,5,1552029657000
1552029660000.0000000000,17,-0.4500000000,A01BBE,5,1552029657000
1552029660015.6201171875,17,-0.5900000000,A01BBE,5,1552029657000
1552029660031.2500000000,17,-0.6000000000,A01BBE,5,1552029657000
1552029660046.8798828125,17,-0.4600000000,A01BBE,5,1552029657000
1552029660062.5000000000,17,-0.2300000000,A01BBE,5,1552029657000
1552029660078.1201171875,17,-0.0200000000,A01BBE,5,1552029657000
1552029660093.7500000000,17,0.0100000000,A01BBE,5,1552029657000
1552029660109.3798828125,17,-0.2200000000,A01BBE,5,1552029657000
1552029660125.0000000000,17,-0.6800000000,A01BBE,5,1552029657000
1552029660140.6201171875,17,-1.2200000000,A01BBE,5,1552029657000
1552029660156.2500000000,17,-1.6300000000,A01BBE,5,1552029657000
1552029660171.8798828125,17,-1.7200000000,A01BBE,5,1552029657000
1552029660187.5000000000,17,-1.4300000000,A01BBE,5,1552029657000
1552029660203.1201171875,17,-0.9000000000,A01BBE,5,1552029657000
1552029660218.7500000000,17,-0.4000000000,A01BBE,5,1552029657000
1552029660234.3798828125,17,-0.2500000000,A01BBE,5,1552029657000
1552029660250.0000000000,17,-0.6400000000,A01BBE,5,1552029657000
1552029660265.6201171875,17,-1.5000000000,A01BBE,5,1552029657000
1552029660281.2500000000,17,-2.5600000000,A01BBE,5,1552029657000
1552029660296.8798828125,17,-3.3700000000,A01BBE,5,1552029657000
1552029660312.5000000000,17,-3.6000000000,A01BBE,5,1552029657000
1552029660328.1201171875,17,-3.1100000000,A01BBE,5,1552029657000
1552029660343.7500000000,17,-2.1400000000,A01BBE,5,1552029657000
1552029660359.3798828125,17,-1.1900000000,A01BBE,5,1552029657000
1552029660375.0000000000,17,-0.8000000000,A01BBE,5,1552029657000
1552029660390.6201171875,17,-1.2700000000,A01BBE,5,1552029657000
1552029660406.2500000000,17,-2.5400000000,A01BBE,5,1552029657000
1552029660421.8798828125,17,-4.1400000000,A01BBE,5,1552029657000
1552029660437.5000000000,17,-5.4000000000,A01BBE,5,1552029657000
1552029660453.1201171875,17,-5.8500000000,A01BBE,5,1552029657000
1552029660468.7500000000,17,-5.2800000000,A01BBE,5,1552029657000
1552029660484.3798828125,17,-3.9700000000,A01BBE,5,1552029657000
1552029660500.0000000000,17,-2.4800000000,A01BBE,5,1552029657000
1552029660515.6201171875,17,-1.3800000000,A01BBE,5,1552029657000
1552029660531.2500000000,17,-1.1200000000,A01BBE,5,1552029657000
1552029660546.8798828125,17,-2.0100000000,A01BBE,5,1552029657000
1552029660562.5000000000,17,-4.1900000000,A01BBE,5,1552029657000
1552029660578.1201171875,17,-7.5500000000,A01BBE,5,1552029657000
1552029660593.7500000000,17,-11.4000000000,A01BBE,5,1552029657000
1552029660609.3798828125,17,-14.3800000000,A01BBE,5,1552029657000
1552029660625.0000000000,17,-14.5700000000,A01BBE,5,1552029657000
1552029660640.6201171875,17,-10.4200000000,A01BBE,5,1552029657000
1552029660656.2500000000,17,-1.5400000000,A01BBE,5,1552029657000
1552029660671.8798828125,17,10.7300000000,A01BBE,5,1552029657000
1552029660687.5000000000,17,23.5700000000,A01BBE,5,1552029657000
1552029660703.1201171875,17,33.8200000000,A01BBE,5,1552029657000
1552029660718.7500000000,17,39.2100000000,A01BBE,5,1552029657000
1552029660734.3798828125,17,39.2400000000,A01BBE,5,1552029657000
1552029660750.0000000000,17,35.1000000000,A01BBE,5,1552029657000
1552029660765.6201171875,17,28.8600000000,A01BBE,5,1552029657000
1552029660781.2500000000,17,22.3800000000,A01BBE,5,1552029657000
1552029660796.8798828125,17,16.5700000000,A01BBE,5,1552029657000
1552029660812.5000000000,17,11.4200000000,A01BBE,5,1552029657000
1552029660828.1201171875,17,6.5700000000,A01BBE,5,1552029657000
1552029660843.7500000000,17,1.9300000000,A01BBE,5,1552029657000
1552029660859.3798828125,17,-2.1300000000,A01BBE,5,1552029657000
1552029660875.0000000000,17,-4.9500000000,A01BBE,5,1552029657000
1552029660890.6201171875,17,-6.0600000000,A01BBE,5,1552029657000
1552029660906.2500000000,17,-5.5900000000,A01BBE,5,1552029657000
1552029660921.8798828125,17,-4.2300000000,A01BBE,5,1552029657000
1552029660937.5000000000,17,-2.9400000000,A01BBE,5,1552029657000
1552029660953.1201171875,17,-2.5700000000,A01BBE,5,1552029657000
1552029660968.7500000000,17,-3.3800000000,A01BBE,5,1552029657000
1552029660984.3798828125,17,-4.9900000000,A01BBE,5,1552029657000
1552029661000.0000000000,17,-6.6400000000,A01BBE,5,1552029657000
1552029661015.6201171875,17,-7.5700000000,A01BBE,5,1552029657000
1552029661031.2500000000,17,-7.3700000000,A01BBE,5,1552029657000
1552029661046.8798828125,17,-6.1800000000,A01BBE,5,1552029657000
1552029661062.5000000000,17,-4.5700000000,A01BBE,5,1552029657000
1552029661078.1201171875,17,-3.2500000000,A01BBE,5,1552029657000
1552029661093.7500000000,17,-2.6700000000,A01BBE,5,1552029657000
1552029661109.3798828125,17,-2.9100000000,A01BBE,5,1552029657000
1552029661125.0000000000,17,-3.6900000000,A01BBE,5,1552029657000
1552029661140.6201171875,17,-4.5200000000,A01BBE,5,1552029657000
1552029661156.2500000000,17,-5.0100000000,A01BBE,5,1552029657000
1552029661171.8798828125,17,-4.9300000000,A01BBE,5,1552029657000
1552029661187.5000000000,17,-4.3200000000,A01BBE,5,1552029657000
1552029661203.1201171875,17,-3.4100000000,A01BBE,5,1552029657000
1552029661218.7500000000,17,-2.5100000000,A01BBE,5,1552029657000
1552029661234.3798828125,17,-1.8600000000,A01BBE,5,1552029657000
1552029661250.0000000000,17,-1.6000000000,A01BBE,5,1552029657000
1552029661265.6201171875,17,-1.7400000000,A01BBE,5,1552029657000
1552029661281.2500000000,17,-2.1400000000,A01BBE,5,1552029657000
1552029661296.8798828125,17,-2.6100000000,A01BBE,5,1552029657000
1552029661312.5000000000,17,-2.9400000000,A01BBE,5,1552029657000
1552029661328.1201171875,17,-2.9500000000,A01BBE,5,1552029657000
1552029661343.7500000000,17,-2.5600000000,A01BBE,5,1552029657000
1552029661359.3798828125,17,-1.7700000000,A01BBE,5,1552029657000
1552029661375.0000000000,17,-0.6300000000,A01BBE,5,1552029657000
1552029661390.6201171875,17,0.7400000000,A01BBE,5,1552029657000
1552029661406.2500000000,17,2.2300000000,A01BBE,5,1552029657000
1552029661421.8798828125,17,3.7000000000,A01BBE,5,1552029657000
1552029661437.5000000000,17,5.0500000000,A01BBE,5,1552029657000
1552029661453.1201171875,17,6.1900000000,A01BBE,5,1552029657000
1552029661468.7500000000,17,7.0400000000,A01BBE,5,1552029657000
1552029661484.3798828125,17,7.6300000000,A01BBE,5,1552029657000
1552029661500.0000000000,17,7.9300000000,A01BBE,5,1552029657000
1552029661515.6201171875,17,7.9600000000,A01BBE,5,1552029657000
1552029661531.2500000000,17,7.7300000000,A01BBE,5,1552029657000
1552029661546.8798828125,17,7.2800000000,A01BBE,5,1552029657000
1552029661562.5000000000,17,6.6600000000,A01BBE,5,1552029657000
1552029661578.1201171875,17,5.9300000000,A01BBE,5,1552029657000
1552029661593.7500000000,17,5.2500000000,A01BBE,5,1552029657000
1552029661609.3798828125,17,4.7400000000,A01BBE,5,1552029657000
1552029661625.0000000000,17,4.5500000000,A01BBE,5,1552029657000
1552029661640.6201171875,17,4.6900000000,A01BBE,5,1552029657000
1552029661656.2500000000,17,5.1200000000,A01BBE,5,1552029657000
1552029661671.8798828125,17,5.7000000000,A01BBE,5,1552029657000
1552029661687.5000000000,17,6.2500000000,A01BBE,5,1552029657000
1552029661703.1201171875,17,6.7500000000,A01BBE,5,1552029657000
1552029661718.7500000000,17,7.1000000000,A01BBE,5,1552029657000
1552029661734.3798828125,17,7.2500000000,A01BBE,5,1552029657000
1552029661750.0000000000,17,7.1800000000,A01BBE,5,1552029657000
1552029661765.6201171875,17,6.9200000000,A01BBE,5,1552029657000
1552029661781.2500000000,17,6.5100000000,A01BBE,5,1552029657000
1552029661796.8798828125,17,5.9400000000,A01BBE,5,1552029657000
1552029661812.5000000000,17,5.2000000000,A01BBE,5,1552029657000
1552029661828.1201171875,17,4.2500000000,A01BBE,5,1552029657000
1552029661843.7500000000,17,3.1100000000,A01BBE,5,1552029657000
1552029661859.3798828125,17,1.8100000000,A01BBE,5,1552029657000
1552029661875.0000000000,17,0.4800000000,A01BBE,5,1552029657000
1552029661890.6201171875,17,-0.8000000000,A01BBE,5,1552029657000
1552029661906.2500000000,17,-1.9700000000,A01BBE,5,1552029657000
1552029661921.8798828125,17,-3.0900000000,A01BBE,5,1552029657000
1552029661937.5000000000,17,-4.2900000000,A01BBE,5,1552029657000
1552029661953.1201171875,17,-5.6800000000,A01BBE,5,1552029657000
1552029661968.7500000000,17,-7.2600000000,A01BBE,5,1552029657000
1552029661984.3798828125,17,-8.8300000000,A01BBE,5,1552029657000
1552029662000.0000000000,17,-10.2000000000,A01BBE,5,1552029657000
1552029662015.6201171875,17,-11.1500000000,A01BBE,5,1552029657000
1552029662031.2500000000,17,-11.6600000000,A01BBE,5,1552029657000
1552029662046.8798828125,17,-11.8600000000,A01BBE,5,1552029657000
1552029662062.5000000000,17,-12.0100000000,A01BBE,5,1552029657000
1552029662078.1201171875,17,-12.3700000000,A01BBE,5,1552029657000
1552029662093.7500000000,17,-13.0900000000,A01BBE,5,1552029657000
1552029662109.3798828125,17,-14.2300000000,A01BBE,5,1552029657000
1552029662125.0000000000,17,-15.7300000000,A01BBE,5,1552029657000
1552029662140.6201171875,17,-17.4700000000,A01BBE,5,1552029657000
1552029662156.2500000000,17,-19.2400000000,A01BBE,5,1552029657000
1552029662171.8798828125,17,-20.7400000000,A01BBE,5,1552029657000
1552029662187.5000000000,17,-21.6200000000,A01BBE,5,1552029657000
1552029662203.1201171875,17,-21.5400000000,A01BBE,5,1552029657000
1552029662218.7500000000,17,-20.2500000000,A01BBE,5,1552029657000
1552029662234.3798828125,17,-17.7600000000,A01BBE,5,1552029657000
1552029662250.0000000000,17,-14.3000000000,A01BBE,5,1552029657000
1552029662265.6201171875,17,-10.3600000000,A01BBE,5,1552029657000
1552029662281.2500000000,17,-6.4800000000,A01BBE,5,1552029657000
1552029662296.8798828125,17,-3.1700000000,A01BBE,5,1552029657000
1552029662312.5000000000,17,-0.6800000000,A01BBE,5,1552029657000
1552029662328.1201171875,17,0.9900000000,A01BBE,5,1552029657000
1552029662343.7500000000,17,2.0300000000,A01BBE,5,1552029657000
1552029662359.3798828125,17,2.7100000000,A01BBE,5,1552029657000
1552029662375.0000000000,17,3.2100000000,A01BBE,5,1552029657000
1552029662390.6201171875,17,3.5500000000,A01BBE,5,1552029657000
1552029662406.2500000000,17,3.5900000000,A01BBE,5,1552029657000
1552029662421.8798828125,17,3.1600000000,A01BBE,5,1552029657000
1552029662437.5000000000,17,2.2000000000,A01BBE,5,1552029657000
1552029662453.1201171875,17,0.8200000000,A01BBE,5,1552029657000
1552029662468.7500000000,17,-0.6500000000,A01BBE,5,1552029657000
1552029662484.3798828125,17,-1.9000000000,A01BBE,5,1552029657000
1552029662500.0000000000,17,-2.7000000000,A01BBE,5,1552029657000
1552029662515.6201171875,17,-3.0200000000,A01BBE,5,1552029657000
1552029662531.2500000000,17,-3.0400000000,A01BBE,5,1552029657000
1552029662546.8798828125,17,-3.0300000000,A01BBE,5,1552029657000
1552029662562.5000000000,17,-3.2300000000,A01BBE,5,1552029657000
1552029662578.1201171875,17,-3.7700000000,A01BBE,5,1552029657000
1552029662593.7500000000,17,-4.6700000000,A01BBE,5,1552029657000
1552029662609.3798828125,17,-5.8700000000,A01BBE,5,1552029657000
1552029662625.0000000000,17,-7.3100000000,A01BBE,5,1552029657000
1552029662640.6201171875,17,-8.9300000000,A01BBE,5,1552029657000
1552029662656.2500000000,17,-10.7100000000,A01BBE,5,1552029657000
1552029662671.8798828125,17,-12.6700000000,A01BBE,5,1552029657000
1552029662687.5000000000,17,-14.7800000000,A01BBE,5,1552029657000
1552029662703.1201171875,17,-17.0300000000,A01BBE,5,1552029657000
1552029662718.7500000000,17,-19.4300000000,A01BBE,5,1552029657000
1552029662734.3798828125,17,-21.9500000000,A01BBE,5,1552029657000
1552029662750.0000000000,17,-24.5400000000,A01BBE,5,1552029657000
1552029662765.6201171875,17,-27.1400000000,A01BBE,5,1552029657000
1552029662781.2500000000,17,-29.6000000000,A01BBE,5,1552029657000
1552029662796.8798828125,17,-31.6900000000,A01BBE,5,1552029657000
1552029662812.5000000000,17,-33.1600000000,A01BBE,5,1552029657000
1552029662828.1201171875,17,-33.6900000000,A01BBE,5,1552029657000
1552029662843.7500000000,17,-33.0200000000,A01BBE,5,1552029657000
1552029662859.3798828125,17,-30.9700000000,A01BBE,5,1552029657000
1552029662875.0000000000,17,-27.4800000000,A01BBE,5,1552029657000
1552029662890.6201171875,17,-22.6600000000,A01BBE,5,1552029657000
1552029662906.2500000000,17,-16.7900000000,A01BBE,5,1552029657000
1552029662921.8798828125,17,-10.3400000000,A01BBE,5,1552029657000
1552029662937.5000000000,17,-3.9100000000,A01BBE,5,1552029657000
1552029662953.1201171875,17,1.9100000000,A01BBE,5,1552029657000
1552029662968.7500000000,17,6.7400000000,A01BBE,5,1552029657000
1552029662984.3798828125,17,10.5300000000,A01BBE,5,1552029657000
1552029663000.0000000000,17,13.5500000000,A01BBE,5,1552029657000
1552029663015.6201171875,17,16.2600000000,A01BBE,5,1552029657000
1552029663031.2500000000,17,19.0800000000,A01BBE,5,1552029657000
1552029663046.8798828125,17,22.1400000000,A01BBE,5,1552029657000
1552029663062.5000000000,17,25.2800000000,A01BBE,5,1552029657000
1552029663078.1201171875,17,28.1200000000,A01BBE,5,1552029657000
1552029663093.7500000000,17,30.3200000000,A01BBE,5,1552029657000
1552029663109.3798828125,17,31.6900000000,A01BBE,5,1552029657000
1552029663125.0000000000,17,32.2800000000,A01BBE,5,1552029657000
1552029663140.6201171875,17,32.2500000000,A01BBE,5,1552029657000
1552029663156.2500000000,17,31.7700000000,A01BBE,5,1552029657000
1552029663171.8798828125,17,30.9400000000,A01BBE,5,1552029657000
1552029663187.5000000000,17,29.9100000000,A01BBE,5,1552029657000
1552029663203.1201171875,17,28.9100000000,A01BBE,5,1552029657000
1552029663218.7500000000,17,28.3000000000,A01BBE,5,1552029657000
1552029663234.3798828125,17,28.3300000000,A01BBE,5,1552029657000
1552029663250.0000000000,17,29.0500000000,A01BBE,5,1552029657000
1552029663265.6201171875,17,30.2100000000,A01BBE,5,1552029657000
1552029663281.2500000000,17,31.3900000000,A01BBE,5,1552029657000
1552029663296.8798828125,17,32.1700000000,A01BBE,5,1552029657000
1552029663312.5000000000,17,32.3700000000,A01BBE,5,1552029657000
1552029663328.1201171875,17,32.0700000000,A01BBE,5,1552029657000
1552029663343.7500000000,17,31.5100000000,A01BBE,5,1552029657000
1552029663359.3798828125,17,30.8300000000,A01BBE,5,1552029657000
1552029663375.0000000000,17,30.0200000000,A01BBE,5,1552029657000
1552029663390.6201171875,17,28.8700000000,A01BBE,5,1552029657000
1552029663406.2500000000,17,27.1500000000,A01BBE,5,1552029657000
1552029663421.8798828125,17,24.7700000000,A01BBE,5,1552029657000
1552029663437.5000000000,17,21.8800000000,A01BBE,5,1552029657000
1552029663453.1201171875,17,18.8200000000,A01BBE,5,1552029657000
1552029663468.7500000000,17,15.9700000000,A01BBE,5,1552029657000
1552029663484.3798828125,17,13.6000000000,A01BBE,5,1552029657000
1552029663500.0000000000,17,11.7800000000,A01BBE,5,1552029657000
1552029663515.6201171875,17,10.4100000000,A01BBE,5,1552029657000
1552029663531.2500000000,17,9.2800000000,A01BBE,5,1552029657000
1552029663546.8798828125,17,8.2100000000,A01BBE,5,1552029657000
1552029663562.5000000000,17,7.0700000000,A01BBE,5,1552029657000
1552029663578.1201171875,17,5.8400000000,A01BBE,5,1552029657000
1552029663593.7500000000,17,4.5800000000,A01BBE,5,1552029657000
1552029663609.3798828125,17,3.3800000000,A01BBE,5,1552029657000
1552029663625.0000000000,17,2.3000000000,A01BBE,5,1552029657000
1552029663640.6201171875,17,1.3500000000,A01BBE,5,1552029657000
1552029663656.2500000000,17,0.5000000000,A01BBE,5,1552029657000
1552029663671.8798828125,17,-0.3100000000,A01BBE,5,1552029657000
1552029663687.5000000000,17,-1.1200000000,A01BBE,5,1552029657000
1552029663703.1201171875,17,-1.9700000000,A01BBE,5,1552029657000
1552029663718.7500000000,17,-2.8900000000,A01BBE,5,1552029657000
1552029663734.3798828125,17,-3.8900000000,A01BBE,5,1552029657000
1552029663750.0000000000,17,-5.0000000000,A01BBE,5,1552029657000
1552029663765.6201171875,17,-6.2400000000,A01BBE,5,1552029657000
1552029663781.2500000000,17,-7.6800000000,A01BBE,5,1552029657000
1552029663796.8798828125,17,-9.3500000000,A01BBE,5,1552029657000
1552029663812.5000000000,17,-11.2400000000,A01BBE,5,1552029657000
1552029663828.1201171875,17,-13.2100000000,A01BBE,5,1552029657000
1552029663843.7500000000,17,-14.9300000000,A01BBE,5,1552029657000
1552029663859.3798828125,17,-16.0100000000,A01BBE,5,1552029657000
1552029663875.0000000000,17,-16.0700000000,A01BBE,5,1552029657000
1552029663890.6201171875,17,-14.9500000000,A01BBE,5,1552029657000
1552029663906.2500000000,17,-12.8000000000,A01BBE,5,1552029657000
1552029663921.8798828125,17,-10.0100000000,A01BBE,5,1552029657000
1552029663937.5000000000,17,-7.0800000000,A01BBE,5,1552029657000
1552029663953.1201171875,17,-4.3700000000,A01BBE,5,1552029657000
1552029663968.7500000000,17,-2.0700000000,A01BBE,5,1552029657000
1552029663984.3798828125,17,-0.1600000000,A01BBE,5,1552029657000
1552029664000.0000000000,17,1.4300000000,A01BBE,5,1552029657000
1552029664015.6201171875,17,2.7200000000,A01BBE,5,1552029657000
1552029664031.2500000000,17,3.6500000000,A01BBE,5,1552029657000
1552029664046.8798828125,17,4.0900000000,A01BBE,5,1552029657000
1552029664062.5000000000,17,4.0000000000,A01BBE,5,1552029657000
1552029664078.1201171875,17,3.4500000000,A01BBE,5,1552029657000
1552029664093.7500000000,17,2.6300000000,A01BBE,5,1552029657000
1552029664109.3798828125,17,1.8000000000,A01BBE,5,1552029657000
1552029664125.0000000000,17,1.1300000000,A01BBE,5,1552029657000
1552029664140.6201171875,17,0.7100000000,A01BBE,5,1552029657000
1552029664156.2500000000,17,0.5300000000,A01BBE,5,1552029657000
1552029664171.8798828125,17,0.6000000000,A01BBE,5,1552029657000
1552029664187.5000000000,17,0.9000000000,A01BBE,5,1552029657000
1552029664203.1201171875,17,1.4300000000,A01BBE,5,1552029657000
1552029664218.7500000000,17,2.1600000000,A01BBE,5,1552029657000
1552029664234.3798828125,17,3.0300000000,A01BBE,5,1552029657000
1552029664250.0000000000,17,3.9100000000,A01BBE,5,1552029657000
1552029664265.6201171875,17,4.5900000000,A01BBE,5,1552029657000
1552029664281.2500000000,17,4.9100000000,A01BBE,5,1552029657000
1552029664296.8798828125,17,4.7700000000,A01BBE,5,1552029657000
1552029664312.5000000000,17,4.1600000000,A01BBE,5,1552029657000
1552029664328.1201171875,17,3.1900000000,A01BBE,5,1552029657000
1552029664343.7500000000,17,2.0400000000,A01BBE,5,1552029657000
1552029664359.3798828125,17,0.8400000000,A01BBE,5,1552029657000
1552029664375.0000000000,17,-0.2800000000,A01BBE,5,1552029657000
1552029664390.6201171875,17,-1.3200000000,A01BBE,5,1552029657000
1552029664406.2500000000,17,-2.3700000000,A01BBE,5,1552029657000
1552029664421.8798828125,17,-3.5100000000,A01BBE,5,1552029657000
1552029664437.5000000000,17,-4.8300000000,A01BBE,5,1552029657000
1552029664453.1201171875,17,-6.3000000000,A01BBE,5,1552029657000
1552029664468.7500000000,17,-7.8000000000,A01BBE,5,1552029657000
1552029664484.3798828125,17,-9.2100000000,A01BBE,5,1552029657000
1552029664500.0000000000,17,-10.4600000000,A01BBE,5,1552029657000
1552029664515.6201171875,17,-11.5300000000,A01BBE,5,1552029657000
1552029664531.2500000000,17,-12.4700000000,A01BBE,5,1552029657000
1552029664546.8798828125,17,-13.3600000000,A01BBE,5,1552029657000
1552029664562.5000000000,17,-14.2200000000,A01BBE,5,1552029657000
1552029664578.1201171875,17,-15.1200000000,A01BBE,5,1552029657000
1552029664593.7500000000,17,-16.1900000000,A01BBE,5,1552029657000
1552029664609.3798828125,17,-17.5600000000,A01BBE,5,1552029657000
1552029664625.0000000000,17,-19.3300000000,A01BBE,5,1552029657000
1552029664640.6201171875,17,-21.4100000000,A01BBE,5,1552029657000
1552029664656.2500000000,17,-23.4800000000,A01BBE,5,1552029657000
1552029664671.8798828125,17,-24.9700000000,A01BBE,5,1552029657000
1552029664687.5000000000,17,-25.3500000000,A01BBE,5,1552029657000
1552029664703.1201171875,17,-24.2500000000,A01BBE,5,1552029657000
1552029664718.7500000000,17,-21.6700000000,A01BBE,5,1552029657000
1552029664734.3798828125,17,-17.9700000000,A01BBE,5,1552029657000
1552029664750.0000000000,17,-13.6900000000,A01BBE,5,1552029657000
1552029664765.6201171875,17,-9.4000000000,A01BBE,5,1552029657000
1552029664781.2500000000,17,-5.5500000000,A01BBE,5,1552029657000
1552029664796.8798828125,17,-2.3900000000,A01BBE,5,1552029657000
1552029664812.5000000000,17,-0.0100000000,A01BBE,5,1552029657000
1552029664828.1201171875,17,1.6000000000,A01BBE,5,1552029657000
1552029664843.7500000000,17,2.5100000000,A01BBE,5,1552029657000
1552029664859.3798828125,17,2.8600000000,A01BBE,5,1552029657000
1552029664875.0000000000,17,2.7900000000,A01BBE,5,1552029657000
1552029664890.6201171875,17,2.4700000000,A01BBE,5,1552029657000
1552029664906.2500000000,17,2.0500000000,A01BBE,5,1552029657000
1552029664921.8798828125,17,1.7200000000,A01BBE,5,1552029657000
1552029664937.5000000000,17,1.6500000000,A01BBE,5,1552029657000
1552029664953.1201171875,17,2.0200000000,A01BBE,5,1552029657000
1552029664968.7500000000,17,2.9100000000,A01BBE,5,1552029657000
1552029664984.3798828125,17,4.2400000000,A01BBE,5,1552029657000
1552029665000.0000000000,17,5.7600000000,A01BBE,5,1552029657000
1552029665015.6201171875,17,7.1300000000,A01BBE,5,1552029657000
1552029665031.2500000000,17,8.0700000000,A01BBE,5,1552029657000
1552029665046.8798828125,17,8.5000000000,A01BBE,5,1552029657000
1552029665062.5000000000,17,8.5700000000,A01BBE,5,1552029657000
1552029665078.1201171875,17,8.5700000000,A01BBE,5,1552029657000
1552029665093.7500000000,17,8.7400000000,A01BBE,5,1552029657000
1552029665109.3798828125,17,9.1400000000,A01BBE,5,1552029657000
1552029665125.0000000000,17,9.5600000000,A01BBE,5,1552029657000
1552029665140.6201171875,17,9.6800000000,A01BBE,5,1552029657000
1552029665156.2500000000,17,9.2400000000,A01BBE,5,1552029657000
1552029665171.8798828125,17,8.1500000000,A01BBE,5,1552029657000
1552029665187.5000000000,17,6.5600000000,A01BBE,5,1552029657000
1552029665203.1201171875,17,4.7100000000,A01BBE,5,1552029657000
1552029665218.7500000000,17,2.8900000000,A01BBE,5,1552029657000
1552029665234.3798828125,17,1.2800000000,A01BBE,5,1552029657000
1552029665250.0000000000,17,0.0100000000,A01BBE,5,1552029657000
1552029665265.6201171875,17,-0.8600000000,A01BBE,5,1552029657000
1552029665281.2500000000,17,-1.3600000000,A01BBE,5,1552029657000
1552029665296.8798828125,17,-1.5700000000,A01BBE,5,1552029657000
1552029665312.5000000000,17,-1.6600000000,A01BBE,5,1552029657000
1552029665328.1201171875,17,-1.8300000000,A01BBE,5,1552029657000
1552029665343.7500000000,17,-2.2500000000,A01BBE,5,1552029657000
1552029665359.3798828125,17,-3.0100000000,A01BBE,5,1552029657000
1552029665375.0000000000,17,-4.0900000000,A01BBE,5,1552029657000
1552029665390.6201171875,17,-5.4500000000,A01BBE,5,1552029657000
1552029665406.2500000000,17,-7.0900000000,A01BBE,5,1552029657000
1552029665421.8798828125,17,-9.0400000000,A01BBE,5,1552029657000
1552029665437.5000000000,17,-11.2200000000,A01BBE,5,1552029657000
1552029665453.1201171875,17,-13.4300000000,A01BBE,5,1552029657000
1552029665468.7500000000,17,-15.2000000000,A01BBE,5,1552029657000
1552029665484.3798828125,17,-15.9900000000,A01BBE,5,1552029657000
1552029665500.0000000000,17,-15.3300000000,A01BBE,5,1552029657000
1552029665515.6201171875,17,-13.0900000000,A01BBE,5,1552029657000
1552029665531.2500000000,17,-9.5300000000,A01BBE,5,1552029657000
1552029665546.8798828125,17,-5.2300000000,A01BBE,5,1552029657000
1552029665562.5000000000,17,-0.9000000000,A01BBE,5,1552029657000
1552029665578.1201171875,17,2.9000000000,A01BBE,5,1552029657000
1552029665593.7500000000,17,5.8800000000,A01BBE,5,1552029657000
1552029665609.3798828125,17,8.0700000000,A01BBE,5,1552029657000
1552029665625.0000000000,17,9.6900000000,A01BBE,5,1552029657000
1552029665640.6201171875,17,11.0000000000,A01BBE,5,1552029657000
1552029665656.2500000000,17,12.1200000000,A01BBE,5,1552029657000
1552029665671.8798828125,17,13.0400000000,A01BBE,5,1552029657000
1552029665687.5000000000,17,13.6400000000,A01BBE,5,1552029657000
1552029665703.1201171875,17,13.7800000000,A01BBE,5,1552029657000
1552029665718.7500000000,17,13.4500000000,A01BBE,5,1552029657000
1552029665734.3798828125,17,12.8000000000,A01BBE,5,1552029657000
1552029665750.0000000000,17,12.0800000000,A01BBE,5,1552029657000
1552029665765.6201171875,17,11.4800000000,A01BBE,5,1552029657000
1552029665781.2500000000,17,11.1400000000,A01BBE,5,1552029657000
1552029665796.8798828125,17,11.0400000000,A01BBE,5,1552029657000
1552029665812.5000000000,17,11.1500000000,A01BBE,5,1552029657000
1552029665828.1201171875,17,11.4200000000,A01BBE,5,1552029657000
1552029665843.7500000000,17,11.8300000000,A01BBE,5,1552029657000
1552029665859.3798828125,17,12.3100000000,A01BBE,5,1552029657000
1552029665875.0000000000,17,12.8000000000,A01BBE,5,1552029657000
1552029665890.6201171875,17,13.1100000000,A01BBE,5,1552029657000
1552029665906.2500000000,17,13.1000000000,A01BBE,5,1552029657000
1552029665921.8798828125,17,12.7100000000,A01BBE,5,1552029657000
1552029665937.5000000000,17,11.9800000000,A01BBE,5,1552029657000
1552029665953.1201171875,17,11.0600000000,A01BBE,5,1552029657000
1552029665968.7500000000,17,10.0800000000,A01BBE,5,1552029657000
1552029665984.3798828125,17,9.1300000000,A01BBE,5,1552029657000
1552029666000.0000000000,17,8.2100000000,A01BBE,5,1552029657000
1552029666015.6201171875,17,7.2600000000,A01BBE,5,1552029657000
1552029666031.2500000000,17,6.2500000000,A01BBE,5,1552029657000
1552029666046.8798828125,17,5.1800000000,A01BBE,5,1552029657000
1552029666062.5000000000,17,4.1100000000,A01BBE,5,1552029657000
1552029666078.1201171875,17,3.0500000000,A01BBE,5,1552029657000
1552029666093.7500000000,17,1.9800000000,A01BBE,5,1552029657000
1552029666109.3798828125,17,0.8400000000,A01BBE,5,1552029657000
1552029666125.0000000000,17,-0.4200000000,A01BBE,5,1552029657000
1552029666140.6201171875,17,-1.8300000000,A01BBE,5,1552029657000
1552029666156.2500000000,17,-3.3400000000,A01BBE,5,1552029657000
1552029666171.8798828125,17,-4.8300000000,A01BBE,5,1552029657000
1552029666187.5000000000,17,-6.2000000000,A01BBE,5,1552029657000
1552029666203.1201171875,17,-7.4500000000,A01BBE,5,1552029657000
1552029666218.7500000000,17,-8.7000000000,A01BBE,5,1552029657000
1552029666234.3798828125,17,-10.1400000000,A01BBE,5,1552029657000
1552029666250.0000000000,17,-11.9600000000,A01BBE,5,1552029657000
1552029666265.6201171875,17,-14.1900000000,A01BBE,5,1552029657000
1552029666281.2500000000,17,-16.5800000000,A01BBE,5,1552029657000
1552029666296.8798828125,17,-18.6500000000,A01BBE,5,1552029657000
1552029666312.5000000000,17,-19.8400000000,A01BBE,5,1552029657000
1552029666328.1201171875,17,-19.7200000000,A01BBE,5,1552029657000
1552029666343.7500000000,17,-18.2100000000,A01BBE,5,1552029657000
1552029666359.3798828125,17,-15.5600000000,A01BBE,5,1552029657000
1552029666375.0000000000,17,-12.2500000000,A01BBE,5,1552029657000
1552029666390.6201171875,17,-8.8100000000,A01BBE,5,1552029657000
1552029666406.2500000000,17,-5.6200000000,A01BBE,5,1552029657000
1552029666421.8798828125,17,-2.9000000000,A01BBE,5,1552029657000
1552029666437.5000000000,17,-0.6300000000,A01BBE,5,1552029657000
1552029666453.1201171875,17,1.2700000000,A01BBE,5,1552029657000
1552029666468.7500000000,17,2.8400000000,A01BBE,5,1552029657000
1552029666484.3798828125,17,4.0700000000,A01BBE,5,1552029657000
1552029666500.0000000000,17,4.8700000000,A01BBE,5,1552029657000
1552029666515.6201171875,17,5.1300000000,A01BBE,5,1552029657000
1552029666531.2500000000,17,4.8800000000,A01BBE,5,1552029657000
1552029666546.8798828125,17,4.2300000000,A01BBE,5,1552029657000
1552029666562.5000000000,17,3.4300000000,A01BBE,5,1552029657000
1552029666578.1201171875,17,2.7400000000,A01BBE,5,1552029657000
1552029666593.7500000000,17,2.3900000000,A01BBE,5,1552029657000
1552029666609.3798828125,17,2.4300000000,A01BBE,5,1552029657000
1552029666625.0000000000,17,2.8400000000,A01BBE,5,1552029657000
1552029666640.6201171875,17,3.4700000000,A01BBE,5,1552029657000
1552029666656.2500000000,17,4.2000000000,A01BBE,5,1552029657000
1552029666671.8798828125,17,4.9200000000,A01BBE,5,1552029657000
1552029666687.5000000000,17,5.6100000000,A01BBE,5,1552029657000
1552029666703.1201171875,17,6.2200000000,A01BBE,5,1552029657000
1552029666718.7500000000,17,6.6500000000,A01BBE,5,1552029657000
1552029666734.3798828125,17,6.7700000000,A01BBE,5,1552029657000
1552029666750.0000000000,17,6.4700000000,A01BBE,5,1552029657000
1552029666765.6201171875,17,5.6500000000,A01BBE,5,1552029657000
1552029666781.2500000000,17,4.3900000000,A01BBE,5,1552029657000
1552029666796.8798828125,17,2.8600000000,A01BBE,5,1552029657000
1552029666812.5000000000,17,1.2900000000,A01BBE,5,1552029657000
1552029666828.1201171875,17,-0.0700000000,A01BBE,5,1552029657000
1552029666843.7500000000,17,-1.0800000000,A01BBE,5,1552029657000
1552029666859.3798828125,17,-1.7700000000,A01BBE,5,1552029657000
1552029666875.0000000000,17,-2.2900000000,A01BBE,5,1552029657000
1552029666890.6201171875,17,-2.8800000000,A01BBE,5,1552029657000
1552029666906.2500000000,17,-3.7500000000,A01BBE,5,1552029657000
1552029666921.8798828125,17,-4.9200000000,A01BBE,5,1552029657000
1552029666937.5000000000,17,-6.2600000000,A01BBE,5,1552029657000
1552029666953.1201171875,17,-7.5700000000,A01BBE,5,1552029657000
1552029666968.7500000000,17,-8.6800000000,A01BBE,5,1552029657000
1552029666984.3798828125,17,-9.5700000000,A01BBE,5,1552029657000
1552029667000.0000000000,17,-10.3700000000,A01BBE,5,1552029657000
1552029667015.6201171875,17,-11.3400000000,A01BBE,5,1552029657000
1552029667031.2500000000,17,-12.6800000000,A01BBE,5,1552029657000
1552029667046.8798828125,17,-14.4200000000,A01BBE,5,1552029657000
1552029667062.5000000000,17,-16.4000000000,A01BBE,5,1552029657000
1552029667078.1201171875,17,-18.2800000000,A01BBE,5,1552029657000
1552029667093.7500000000,17,-19.6900000000,A01BBE,5,1552029657000
1552029667109.3798828125,17,-20.3200000000,A01BBE,5,1552029657000
1552029667125.0000000000,17,-20.0000000000,A01BBE,5,1552029657000
1552029667140.6201171875,17,-18.7500000000,A01BBE,5,1552029657000
1552029667156.2500000000,17,-16.6700000000,A01BBE,5,1552029657000
1552029667171.8798828125,17,-13.9500000000,A01BBE,5,1552029657000
1552029667187.5000000000,17,-10.7900000000,A01BBE,5,1552029657000
1552029667203.1201171875,17,-7.4300000000,A01BBE,5,1552029657000
1552029667218.7500000000,17,-4.1500000000,A01BBE,5,1552029657000
1552029667234.3798828125,17,-1.2000000000,A01BBE,5,1552029657000
1552029667250.0000000000,17,1.1300000000,A01BBE,5,1552029657000
1552029667265.6201171875,17,2.6800000000,A01BBE,5,1552029657000
1552029667281.2500000000,17,3.4100000000,A01BBE,5,1552029657000
1552029667296.8798828125,17,3.4400000000,A01BBE,5,1552029657000
1552029667312.5000000000,17,2.9700000000,A01BBE,5,1552029657000
1552029667328.1201171875,17,2.2900000000,A01BBE,5,1552029657000
1552029667343.7500000000,17,1.6300000000,A01BBE,5,1552029657000
1552029667359.3798828125,17,1.2200000000,A01BBE,5,1552029657000
1552029667375.0000000000,17,1.2000000000,A01BBE,5,1552029657000
1552029667390.6201171875,17,1.6400000000,A01BBE,5,1552029657000
1552029667406.2500000000,17,2.4900000000,A01BBE,5,1552029657000
1552029667421.8798828125,17,3.5700000000,A01BBE,5,1552029657000
1552029667437.5000000000,17,4.6300000000,A01BBE,5,1552029657000
1552029667453.1201171875,17,5.4300000000,A01BBE,5,1552029657000
1552029667468.7500000000,17,5.8700000000,A01BBE,5,1552029657000
1552029667484.3798828125,17,6.0300000000,A01BBE,5,1552029657000
1552029667500.0000000000,17,6.1100000000,A01BBE,5,1552029657000
1552029667515.6201171875,17,6.3500000000,A01BBE,5,1552029657000
1552029667531.2500000000,17,6.8000000000,A01BBE,5,1552029657000
1552029667546.8798828125,17,7.3500000000,A01BBE,5,1552029657000
1552029667562.5000000000,17,7.6900000000,A01BBE,5,1552029657000
1552029667578.1201171875,17,7.6000000000,A01BBE,5,1552029657000
1552029667593.7500000000,17,6.9500000000,A01BBE,5,1552029657000
1552029667609.3798828125,17,5.8500000000,A01BBE,5,1552029657000
1552029667625.0000000000,17,4.5100000000,A01BBE,5,1552029657000
1552029667640.6201171875,17,3.1500000000,A01BBE,5,1552029657000
1552029667656.2500000000,17,1.9000000000,A01BBE,5,1552029657000
1552029667671.8798828125,17,0.8200000000,A01BBE,5,1552029657000
1552029667687.5000000000,17,-0.1100000000,A01BBE,5,1552029657000
1552029667703.1201171875,17,-0.9000000000,A01BBE,5,1552029657000
1552029667718.7500000000,17,-1.5700000000,A01BBE,5,1552029657000
1552029667734.3798828125,17,-2.1300000000,A01BBE,5,1552029657000
1552029667750.0000000000,17,-2.6300000000,A01BBE,5,1552029657000
1552029667765.6201171875,17,-3.1700000000,A01BBE,5,1552029657000
1552029667781.2500000000,17,-3.8700000000,A01BBE,5,1552029657000
1552029667796.8798828125,17,-4.8000000000,A01BBE,5,1552029657000
1552029667812.5000000000,17,-5.9500000000,A01BBE,5,1552029657000
1552029667828.1201171875,17,-7.2500000000,A01BBE,5,1552029657000
1552029667843.7500000000,17,-8.6000000000,A01BBE,5,1552029657000
1552029667859.3798828125,17,-9.9400000000,A01BBE,5,1552029657000
1552029667875.0000000000,17,-11.2900000000,A01BBE,5,1552029657000
1552029667890.6201171875,17,-12.7300000000,A01BBE,5,1552029657000
1552029667906.2500000000,17,-14.2700000000,A01BBE,5,1552029657000
1552029667921.8798828125,17,-15.8000000000,A01BBE,5,1552029657000
1552029667937.5000000000,17,-17.0400000000,A01BBE,5,1552029657000
1552029667953.1201171875,17,-17.5600000000,A01BBE,5,1552029657000
1552029667968.7500000000,17,-17.0000000000,A01BBE,5,1552029657000
1552029667984.3798828125,17,-15.2500000000,A01BBE,5,1552029657000
1552029668000.0000000000,17,-12.4600000000,A01BBE,5,1552029657000
1552029668015.6201171875,17,-9.1000000000,A01BBE,5,1552029657000
1552029668031.2500000000,17,-5.6500000000,A01BBE,5,1552029657000
1552029668046.8798828125,17,-2.4800000000,A01BBE,5,1552029657000
1552029668062.5000000000,17,0.2100000000,A01BBE,5,1552029657000
1552029668078.1201171875,17,2.4500000000,A01BBE,5,1552029657000
1552029668093.7500000000,17,4.3100000000,A01BBE,5,1552029657000
1552029668109.3798828125,17,5.8000000000,A01BBE,5,1552029657000
1552029668125.0000000000,17,6.9100000000,A01BBE,5,1552029657000
1552029668140.6201171875,17,7.6100000000,A01BBE,5,1552029657000
1552029668156.2500000000,17,7.9600000000,A01BBE,5,1552029657000
1552029668171.8798828125,17,8.1600000000,A01BBE,5,1552029657000
1552029668187.5000000000,17,8.4500000000,A01BBE,5,1552029657000
1552029668203.1201171875,17,9.0000000000,A01BBE,5,1552029657000
1552029668218.7500000000,17,9.8400000000,A01BBE,5,1552029657000
1552029668234.3798828125,17,10.8500000000,A01BBE,5,1552029657000
1552029668250.0000000000,17,11.8100000000,A01BBE,5,1552029657000
1552029668265.6201171875,17,12.5500000000,A01BBE,5,1552029657000
1552029668281.2500000000,17,12.9800000000,A01BBE,5,1552029657000
1552029668296.8798828125,17,13.1500000000,A01BBE,5,1552029657000
1552029668312.5000000000,17,13.2000000000,A01BBE,5,1552029657000
1552029668328.1201171875,17,13.2700000000,A01BBE,5,1552029657000
1552029668343.7500000000,17,13.4400000000,A01BBE,5,1552029657000
1552029668359.3798828125,17,13.6700000000,A01BBE,5,1552029657000
1552029668375.0000000000,17,13.8200000000,A01BBE,5,1552029657000
1552029668390.6201171875,17,13.7300000000,A01BBE,5,1552029657000
1552029668406.2500000000,17,13.2700000000,A01BBE,5,1552029657000
1552029668421.8798828125,17,12.4000000000,A01BBE,5,1552029657000
1552029668437.5000000000,17,11.1900000000,A01BBE,5,1552029657000
1552029668453.1201171875,17,9.8100000000,A01BBE,5,1552029657000
1552029668468.7500000000,17,8.4800000000,A01BBE,5,1552029657000
1552029668484.3798828125,17,7.3800000000,A01BBE,5,1552029657000
1552029668500.0000000000,17,6.6100000000,A01BBE,5,1552029657000
1552029668515.6201171875,17,6.1500000000,A01BBE,5,1552029657000
1552029668531.2500000000,17,5.8500000000,A01BBE,5,1552029657000
1552029668546.8798828125,17,5.4400000000,A01BBE,5,1552029657000
1552029668562.5000000000,17,4.6900000000,A01BBE,5,1552029657000
1552029668578.1201171875,17,3.5200000000,A01BBE,5,1552029657000
1552029668593.7500000000,17,2.0100000000,A01BBE,5,1552029657000
1552029668609.3798828125,17,0.4100000000,A01BBE,5,1552029657000
1552029668625.0000000000,17,-1.0100000000,A01BBE,5,1552029657000
1552029668640.6201171875,17,-2.0800000000,A01BBE,5,1552029657000
1552029668656.2500000000,17,-2.8400000000,A01BBE,5,1552029657000
1552029668671.8798828125,17,-3.4300000000,A01BBE,5,1552029657000
1552029668687.5000000000,17,-4.0500000000,A01BBE,5,1552029657000
1552029668703.1201171875,17,-4.8200000000,A01BBE,5,1552029657000
1552029668718.7500000000,17,-5.7900000000,A01BBE,5,1552029657000
1552029668734.3798828125,17,-6.9700000000,A01BBE,5,1552029657000
1552029668750.0000000000,17,-8.3700000000,A01BBE,5,1552029657000
1552029668765.6201171875,17,-10.0100000000,A01BBE,5,1552029657000
1552029668781.2500000000,17,-11.8900000000,A01BBE,5,1552029657000
1552029668796.8798828125,17,-13.8400000000,A01BBE,5,1552029657000
1552029668812.5000000000,17,-15.5300000000,A01BBE,5,1552029657000
1552029668828.1201171875,17,-16.5500000000,A01BBE,5,1552029657000
1552029668843.7500000000,17,-16.5300000000,A01BBE,5,1552029657000
1552029668859.3798828125,17,-15.3300000000,A01BBE,5,1552029657000
1552029668875.0000000000,17,-13.0500000000,A01BBE,5,1552029657000
1552029668890.6201171875,17,-10.0300000000,A01BBE,5,1552029657000
1552029668906.2500000000,17,-6.6800000000,A01BBE,5,1552029657000
1552029668921.8798828125,17,-3.3300000000,A01BBE,5,1552029657000
1552029668937.5000000000,17,-0.2100000000,A01BBE,5,1552029657000
1552029668953.1201171875,17,2.5700000000,A01BBE,5,1552029657000
1552029668968.7500000000,17,4.9500000000,A01BBE,5,1552029657000
1552029668984.3798828125,17,6.8900000000,A01BBE,5,1552029657000
1552029669000.0000000000,17,8.3000000000,A01BBE,5,1552029657000
1552029669015.6201171875,17,9.0800000000,A01BBE,5,1552029657000
1552029669031.2500000000,17,9.2200000000,A01BBE,5,1552029657000
1552029669046.8798828125,17,8.8100000000,A01BBE,5,1552029657000
1552029669062.5000000000,17,8.1100000000,A01BBE,5,1552029657000
1552029669078.1201171875,17,7.4600000000,A01BBE,5,1552029657000
1552029669093.7500000000,17,7.1200000000,A01BBE,5,1552029657000
1552029669109.3798828125,17,7.2300000000,A01BBE,5,1552029657000
1552029669125.0000000000,17,7.7000000000,A01BBE,5,1552029657000
1552029669140.6201171875,17,8.3400000000,A01BBE,5,1552029657000
1552029669156.2500000000,17,8.9600000000,A01BBE,5,1552029657000
1552029669171.8798828125,17,9.4400000000,A01BBE,5,1552029657000
1552029669187.5000000000,17,9.7800000000,A01BBE,5,1552029657000
1552029669203.1201171875,17,10.1000000000,A01BBE,5,1552029657000
1552029669218.7500000000,17,10.5000000000,A01BBE,5,1552029657000
1552029669234.3798828125,17,10.9300000000,A01BBE,5,1552029657000
1552029669250.0000000000,17,11.2700000000,A01BBE,5,1552029657000
1552029669265.6201171875,17,11.2900000000,A01BBE,5,1552029657000
1552029669281.2500000000,17,10.8300000000,A01BBE,5,1552029657000
1552029669296.8798828125,17,9.8700000000,A01BBE,5,1552029657000
1552029669312.5000000000,17,8.5100000000,A01BBE,5,1552029657000
1552029669328.1201171875,17,6.9900000000,A01BBE,5,1552029657000
1552029669343.7500000000,17,5.5400000000,A01BBE,5,1552029657000
1552029669359.3798828125,17,4.2900000000,A01BBE,5,1552029657000
1552029669375.0000000000,17,3.2300000000,A01BBE,5,1552029657000
1552029669390.6201171875,17,2.2400000000,A01BBE,5,1552029657000
1552029669406.2500000000,17,1.1800000000,A01BBE,5,1552029657000
1552029669421.8798828125,17,-0.0200000000,A01BBE,5,1552029657000
1552029669437.5000000000,17,-1.3200000000,A01BBE,5,1552029657000
1552029669453.1201171875,17,-2.5900000000,A01BBE,5,1552029657000
1552029669468.7500000000,17,-3.7100000000,A01BBE,5,1552029657000
1552029669484.3798828125,17,-4.6500000000,A01BBE,5,1552029657000
1552029669500.0000000000,17,-5.4900000000,A01BBE,5,1552029657000
1552029669515.6201171875,17,-6.3400000000,A01BBE,5,1552029657000
1552029669531.2500000000,17,-7.3200000000,A01BBE,5,1552029657000
1552029669546.8798828125,17,-8.4600000000,A01BBE,5,1552029657000
1552029669562.5000000000,17,-9.7300000000,A01BBE,5,1552029657000
1552029669578.1201171875,17,-11.0800000000,A01BBE,5,1552029657000
1552029669593.7500000000,17,-12.5400000000,A01BBE,5,1552029657000
1552029669609.3798828125,17,-14.1800000000,A01BBE,5,1552029657000
1552029669625.0000000000,17,-16.1400000000,A01BBE,5,1552029657000
1552029669640.6201171875,17,-18.4900000000,A01BBE,5,1552029657000
1552029669656.2500000000,17,-21.2100000000,A01BBE,5,1552029657000
1552029669671.8798828125,17,-24.1200000000,A01BBE,5,1552029657000
1552029669687.5000000000,17,-26.8600000000,A01BBE,5,1552029657000
1552029669703.1201171875,17,-29.0200000000,A01BBE,5,1552029657000
1552029669718.7500000000,17,-30.2300000000,A01BBE,5,1552029657000
1552029669734.3798828125,17,-30.3100000000,A01BBE,5,1552029657000
1552029669750.0000000000,17,-29.4100000000,A01BBE,5,1552029657000
1552029669765.6201171875,17,-27.9000000000,A01BBE,5,1552029657000
1552029669781.2500000000,17,-26.2200000000,A01BBE,5,1552029657000
1552029669796.8798828125,17,-24.7100000000,A01BBE,5,1552029657000
1552029669812.5000000000,17,-23.4700000000,A01BBE,5,1552029657000
1552029669828.1201171875,17,-22.4400000000,A01BBE,5,1552029657000
1552029669843.7500000000,17,-21.5100000000,A01BBE,5,1552029657000
1552029669859.3798828125,17,-20.7200000000,A01BBE,5,1552029657000
1552029669875.0000000000,17,-20.3000000000,A01BBE,5,1552029657000
1552029669890.6201171875,17,-20.5400000000,A01BBE,5,1552029657000
1552029669906.2500000000,17,-21.6600000000,A01BBE,5,1552029657000
1552029669921.8798828125,17,-23.5800000000,A01BBE,5,1552029657000
1552029669937.5000000000,17,-25.9000000000,A01BBE,5,1552029657000
1552029669953.1201171875,17,-28.0600000000,A01BBE,5,1552029657000
1552029669968.7500000000,17,-29.4700000000,A01BBE,5,1552029657000
1552029669984.3798828125,17,-29.7600000000,A01BBE,5,1552029657000
1552029670000.0000000000,17,-28.7900000000,A01BBE,5,1552029657000
1552029670015.6201171875,17,-26.6400000000,A01BBE,5,1552029657000
1552029670031.2500000000,17,-23.4600000000,A01BBE,5,1552029657000
1552029670046.8798828125,17,-19.4100000000,A01BBE,5,1552029657000
1552029670062.5000000000,17,-14.6000000000,A01BBE,5,1552029657000
1552029670078.1201171875,17,-9.1300000000,A01BBE,5,1552029657000
1552029670093.7500000000,17,-3.0600000000,A01BBE,5,1552029657000
1552029670109.3798828125,17,3.4400000000,A01BBE,5,1552029657000
1552029670125.0000000000,17,10.1600000000,A01BBE,5,1552029657000
1552029670140.6201171875,17,16.8000000000,A01BBE,5,1552029657000
1552029670156.2500000000,17,23.0200000000,A01BBE,5,1552029657000
1552029670171.8798828125,17,28.4500000000,A01BBE,5,1552029657000
1552029670187.5000000000,17,32.8300000000,A01BBE,5,1552029657000
1552029670203.1201171875,17,35.9700000000,A01BBE,5,1552029657000
1552029670218.7500000000,17,37.7900000000,A01BBE,5,1552029657000
1552029670234.3798828125,17,38.3500000000,A01BBE,5,1552029657000
1552029670250.0000000000,17,37.8000000000,A01BBE,5,1552029657000
1552029670265.6201171875,17,36.3800000000,A01BBE,5,1552029657000
1552029670281.2500000000,17,34.4000000000,A01BBE,5,1552029657000
1552029670296.8798828125,17,32.1400000000,A01BBE,5,1552029657000
1552029670312.5000000000,17,29.8300000000,A01BBE,5,1552029657000
1552029670328.1201171875,17,27.6100000000,A01BBE,5,1552029657000
1552029670343.7500000000,17,25.4800000000,A01BBE,5,1552029657000
1552029670359.3798828125,17,23.3900000000,A01BBE,5,1552029657000
1552029670375.0000000000,17,21.2800000000,A01BBE,5,1552029657000
1552029670390.6201171875,17,19.1200000000,A01BBE,5,1552029657000
1552029670406.2500000000,17,16.9600000000,A01BBE,5,1552029657000
1552029670421.8798828125,17,14.9000000000,A01BBE,5,1552029657000
1552029670437.5000000000,17,12.9800000000,A01BBE,5,1552029657000
1552029670453.1201171875,17,11.2100000000,A01BBE,5,1552029657000
1552029670468.7500000000,17,9.4500000000,A01BBE,5,1552029657000
1552029670484.3798828125,17,7.5400000000,A01BBE,5,1552029657000
1552029670500.0000000000,17,5.2300000000,A01BBE,5,1552029657000
1552029670515.6201171875,17,2.3900000000,A01BBE,5,1552029657000
1552029670531.2500000000,17,-0.9400000000,A01BBE,5,1552029657000
1552029670546.8798828125,17,-4.5100000000,A01BBE,5,1552029657000
1552029670562.5000000000,17,-7.8900000000,A01BBE,5,1552029657000
1552029670578.1201171875,17,-10.6200000000,A01BBE,5,1552029657000
1552029670593.7500000000,17,-12.2900000000,A01BBE,5,1552029657000
1552029670609.3798828125,17,-12.7300000000,A01BBE,5,1552029657000
1552029670625.0000000000,17,-11.9800000000,A01BBE,5,1552029657000
1552029670640.6201171875,17,-10.2500000000,A01BBE,5,1552029657000
1552029670656.2500000000,17,-7.7800000000,A01BBE,5,1552029657000
1552029670671.8798828125,17,-4.8700000000,A01BBE,5,1552029657000
1552029670687.5000000000,17,-1.7600000000,A01BBE,5,1552029657000
1552029670703.1201171875,17,1.2700000000,A01BBE,5,1552029657000
1552029670718.7500000000,17,3.9600000000,A01BBE,5,1552029657000
1552029670734.3798828125,17,6.1100000000,A01BBE,5,1552029657000
1552029670750.0000000000,17,7.6000000000,A01BBE,5,1552029657000
1552029670765.6201171875,17,8.4800000000,A01BBE,5,1552029657000
1552029670781.2500000000,17,8.9300000000,A01BBE,5,1552029657000
1552029670796.8798828125,17,9.1400000000,A01BBE,5,1552029657000
1552029670812.5000000000,17,9.2500000000,A01BBE,5,1552029657000
1552029670828.1201171875,17,9.3200000000,A01BBE,5,1552029657000
1552029670843.7500000000,17,9.2900000000,A01BBE,5,1552029657000
1552029670859.3798828125,17,9.1200000000,A01BBE,5,1552029657000
1552029670875.0000000000,17,8.8200000000,A01BBE,5,1552029657000
1552029670890.6201171875,17,8.4700000000,A01BBE,5,1552029657000
1552029670906.2500000000,17,8.2300000000,A01BBE,5,1552029657000
1552029670921.8798828125,17,8.2600000000,A01BBE,5,1552029657000
1552029670937.5000000000,17,8.6800000000,A01BBE,5,1552029657000
1552029670953.1201171875,17,9.4400000000,A01BBE,5,1552029657000
1552029670968.7500000000,17,10.3900000000,A01BBE,5,1552029657000
1552029670984.3798828125,17,11.2300000000,A01BBE,5,1552029657000
1552029671000.0000000000,17,11.7100000000,A01BBE,5,1552029657000
1552029671015.6201171875,17,11.7300000000,A01BBE,5,1552029657000
1552029671031.2500000000,17,11.3500000000,A01BBE,5,1552029657000
1552029671046.8798828125,17,10.8100000000,A01BBE,5,1552029657000
1552029671062.5000000000,17,10.3000000000,A01BBE,5,1552029657000
1552029671078.1201171875,17,9.9400000000,A01BBE,5,1552029657000
1552029671093.7500000000,17,9.6700000000,A01BBE,5,1552029657000
1552029671109.3798828125,17,9.3400000000,A01BBE,5,1552029657000
1552029671125.0000000000,17,8.8200000000,A01BBE,5,1552029657000
1552029671140.6201171875,17,8.0800000000,A01BBE,5,1552029657000
1552029671156.2500000000,17,7.2200000000,A01BBE,5,1552029657000
1552029671171.8798828125,17,6.3500000000,A01BBE,5,1552029657000
1552029671187.5000000000,17,5.5700000000,A01BBE,5,1552029657000
1552029671203.1201171875,17,4.8400000000,A01BBE,5,1552029657000
1552029671218.7500000000,17,4.1400000000,A01BBE,5,1552029657000
1552029671234.3798828125,17,3.3600000000,A01BBE,5,1552029657000
1552029671250.0000000000,17,2.4800000000,A01BBE,5,1552029657000
1552029671265.6201171875,17,1.4900000000,A01BBE,5,1552029657000
1552029671281.2500000000,17,0.3800000000,A01BBE,5,1552029657000
1552029671296.8798828125,17,-0.8000000000,A01BBE,5,1552029657000
1552029671312.5000000000,17,-1.9900000000,A01BBE,5,1552029657000
1552029671328.1201171875,17,-3.0900000000,A01BBE,5,1552029657000
1552029671343.7500000000,17,-4.0600000000,A01BBE,5,1552029657000
1552029671359.3798828125,17,-4.9800000000,A01BBE,5,1552029657000
1552029671375.0000000000,17,-6.0400000000,A01BBE,5,1552029657000
1552029671390.6201171875,17,-7.4200000000,A01BBE,5,1552029657000
1552029671406.2500000000,17,-9.2100000000,A01BBE,5,1552029657000
1552029671421.8798828125,17,-11.3100000000,A01BBE,5,1552029657000
1552029671437.5000000000,17,-13.4200000000,A01BBE,5,1552029657000
1552029671453.1201171875,17,-15.1900000000,A01BBE,5,1552029657000
1552029671468.7500000000,17,-16.3000000000,A01BBE,5,1552029657000
1552029671484.3798828125,17,-16.5900000000,A01BBE,5,1552029657000
1552029671500.0000000000,17,-16.0400000000,A01BBE,5,1552029657000
1552029671515.6201171875,17,-14.7000000000,A01BBE,5,1552029657000
1552029671531.2500000000,17,-12.6800000000,A01BBE,5,1552029657000
1552029671546.8798828125,17,-10.0700000000,A01BBE,5,1552029657000
1552029671562.5000000000,17,-7.0600000000,A01BBE,5,1552029657000
1552029671578.1201171875,17,-3.8700000000,A01BBE,5,1552029657000
1552029671593.7500000000,17,-0.8100000000,A01BBE,5,1552029657000
1552029671609.3798828125,17,1.8400000000,A01BBE,5,1552029657000
1552029671625.0000000000,17,3.9000000000,A01BBE,5,1552029657000
1552029671640.6201171875,17,5.3100000000,A01BBE,5,1552029657000
1552029671656.2500000000,17,6.1300000000,A01BBE,5,1552029657000
1552029671671.8798828125,17,6.4900000000,A01BBE,5,1552029657000
1552029671687.5000000000,17,6.5400000000,A01BBE,5,1552029657000
1552029671703.1201171875,17,6.4000000000,A01BBE,5,1552029657000
1552029671718.7500000000,17,6.1700000000,A01BBE,5,1552029657000
1552029671734.3798828125,17,5.9000000000,A01BBE,5,1552029657000
1552029671750.0000000000,17,5.6500000000,A01BBE,5,1552029657000
1552029671765.6201171875,17,5.5500000000,A01BBE,5,1552029657000
1552029671781.2500000000,17,5.7000000000,A01BBE,5,1552029657000
1552029671796.8798828125,17,6.1900000000,A01BBE,5,1552029657000
1552029671812.5000000000,17,7.0100000000,A01BBE,5,1552029657000
1552029671828.1201171875,17,8.0600000000,A01BBE,5,1552029657000
1552029671843.7500000000,17,9.1200000000,A01BBE,5,1552029657000
1552029671859.3798828125,17,9.9700000000,A01BBE,5,1552029657000
1552029671875.0000000000,17,10.4000000000,A01BBE,5,1552029657000
1552029671890.6201171875,17,10.3000000000,A01BBE,5,1552029657000
1552029671906.2500000000,17,9.7000000000,A01BBE,5,1552029657000
1552029671921.8798828125,17,8.7600000000,A01BBE,5,1552029657000
1552029671937.5000000000,17,7.7000000000,A01BBE,5,1552029657000
1552029671953.1201171875,17,6.7700000000,A01BBE,5,1552029657000
1552029671968.7500000000,17,6.1200000000,A01BBE,5,1552029657000
1552029671984.3798828125,17,5.7800000000,A01BBE,5,1552029657000
1552029672000.0000000000,17,5.6200000000,A01BBE,5,1552029657000
1552029672015.6201171875,17,5.3700000000,A01BBE,5,1552029657000
1552029672031.2500000000,17,4.7900000000,A01BBE,5,1552029657000
1552029672046.8798828125,17,3.7600000000,A01BBE,5,1552029657000
1552029672062.5000000000,17,2.3900000000,A01BBE,5,1552029657000
1552029672078.1201171875,17,0.9200000000,A01BBE,5,1552029657000
1552029672093.7500000000,17,-0.3800000000,A01BBE,5,1552029657000
1552029672109.3798828125,17,-1.4100000000,A01BBE,5,1552029657000
1552029672125.0000000000,17,-2.2900000000,A01BBE,5,1552029657000
1552029672140.6201171875,17,-3.2100000000,A01BBE,5,1552029657000
1552029672156.2500000000,17,-4.3400000000,A01BBE,5,1552029657000
1552029672171.8798828125,17,-5.6900000000,A01BBE,5,1552029657000
1552029672187.5000000000,17,-7.1200000000,A01BBE,5,1552029657000
1552029672203.1201171875,17,-8.4900000000,A01BBE,5,1552029657000
1552029672218.7500000000,17,-9.7100000000,A01BBE,5,1552029657000
1552029672234.3798828125,17,-10.8600000000,A01BBE,5,1552029657000
1552029672250.0000000000,17,-12.0600000000,A01BBE,5,1552029657000
1552029672265.6201171875,17,-13.3900000000,A01BBE,5,1552029657000
1552029672281.2500000000,17,-14.8400000000,A01BBE,5,1552029657000
1552029672296.8798828125,17,-16.3300000000,A01BBE,5,1552029657000
1552029672312.5000000000,17,-17.7600000000,A01BBE,5,1552029657000
1552029672328.1201171875,17,-19.0500000000,A01BBE,5,1552029657000
1552029672343.7500000000,17,-20.0800000000,A01BBE,5,1552029657000
1552029672359.3798828125,17,-20.6800000000,A01BBE,5,1552029657000
1552029672375.0000000000,17,-20.6100000000,A01BBE,5,1552029657000
1552029672390.6201171875,17,-19.6600000000,A01BBE,5,1552029657000
1552029672406.2500000000,17,-17.8000000000,A01BBE,5,1552029657000
1552029672421.8798828125,17,-15.2200000000,A01BBE,5,1552029657000
1552029672437.5000000000,17,-12.2300000000,A01BBE,5,1552029657000
1552029672453.1201171875,17,-9.1600000000,A01BBE,5,1552029657000
1552029672468.7500000000,17,-6.2200000000,A01BBE,5,1552029657000
1552029672484.3798828125,17,-3.5100000000,A01BBE,5,1552029657000
1552029672500.0000000000,17,-1.0800000000,A01BBE,5,1552029657000
1552029672515.6201171875,17,0.9800000000,A01BBE,5,1552029657000
1552029672531.2500000000,17,2.5200000000,A01BBE,5,1552029657000
1552029672546.8798828125,17,3.4200000000,A01BBE,5,1552029657000
1552029672562.5000000000,17,3.6900000000,A01BBE,5,1552029657000
1552029672578.1201171875,17,3.4900000000,A01BBE,5,1552029657000
1552029672593.7500000000,17,3.0400000000,A01BBE,5,1552029657000
1552029672609.3798828125,17,2.6100000000,A01BBE,5,1552029657000
1552029672625.0000000000,17,2.3300000000,A01BBE,5,1552029657000
1552029672640.6201171875,17,2.2600000000,A01BBE,5,1552029657000
1552029672656.2500000000,17,2.3900000000,A01BBE,5,1552029657000
1552029672671.8798828125,17,2.7100000000,A01BBE,5,1552029657000
1552029672687.5000000000,17,3.2100000000,A01BBE,5,1552029657000
1552029672703.1201171875,17,3.8600000000,A01BBE,5,1552029657000
1552029672718.7500000000,17,4.6300000000,A01BBE,5,1552029657000
1552029672734.3798828125,17,5.4200000000,A01BBE,5,1552029657000
1552029672750.0000000000,17,6.1600000000,A01BBE,5,1552029657000
1552029672765.6201171875,17,6.8000000000,A01BBE,5,1552029657000
1552029672781.2500000000,17,7.3500000000,A01BBE,5,1552029657000
1552029672796.8798828125,17,7.7800000000,A01BBE,5,1552029657000
1552029672812.5000000000,17,8.0000000000,A01BBE,5,1552029657000
1552029672828.1201171875,17,7.9200000000,A01BBE,5,1552029657000
1552029672843.7500000000,17,7.4200000000,A01BBE,5,1552029657000
1552029672859.3798828125,17,6.4800000000,A01BBE,5,1552029657000
1552029672875.0000000000,17,5.2100000000,A01BBE,5,1552029657000
1552029672890.6201171875,17,3.8200000000,A01BBE,5,1552029657000
1552029672906.2500000000,17,2.5500000000,A01BBE,5,1552029657000
1552029672921.8798828125,17,1.5900000000,A01BBE,5,1552029657000
1552029672937.5000000000,17,1.0200000000,A01BBE,5,1552029657000
1552029672953.1201171875,17,0.7500000000,A01BBE,5,1552029657000
1552029672968.7500000000,17,0.6000000000,A01BBE,5,1552029657000
1552029672984.3798828125,17,0.3400000000,A01BBE,5,1552029657000
1552029673000.0000000000,17,-0.1600000000,A01BBE,5,1552029657000
1552029673015.6201171875,17,-0.9300000000,A01BBE,5,1552029657000
1552029673031.2500000000,17,-1.9200000000,A01BBE,5,1552029657000
1552029673046.8798828125,17,-3.0000000000,A01BBE,5,1552029657000
1552029673062.5000000000,17,-4.0800000000,A01BBE,5,1552029657000
1552029673078.1201171875,17,-5.1700000000,A01BBE,5,1552029657000
1552029673093.7500000000,17,-6.3400000000,A01BBE,5,1552029657000
1552029673109.3798828125,17,-7.7000000000,A01BBE,5,1552029657000
1552029673125.0000000000,17,-9.3100000000,A01BBE,5,1552029657000
1552029673140.6201171875,17,-11.1600000000,A01BBE,5,1552029657000
1552029673156.2500000000,17,-13.1300000000,A01BBE,5,1552029657000
1552029673171.8798828125,17,-15.0500000000,A01BBE,5,1552029657000
1552029673187.5000000000,17,-16.7500000000,A01BBE,5,1552029657000
1552029673203.1201171875,17,-18.1200000000,A01BBE,5,1552029657000
1552029673218.7500000000,17,-19.0500000000,A01BBE,5,1552029657000
1552029673234.3798828125,17,-19.4900000000,A01BBE,5,1552029657000
1552029673250.0000000000,17,-19.3600000000,A01BBE,5,1552029657000
1552029673265.6201171875,17,-18.5600000000,A01BBE,5,1552029657000
1552029673281.2500000000,17,-17.0000000000,A01BBE,5,1552029657000
1552029673296.8798828125,17,-14.6600000000,A01BBE,5,1552029657000
1552029673312.5000000000,17,-11.6300000000,A01BBE,5,1552029657000
1552029673328.1201171875,17,-8.1100000000,A01BBE,5,1552029657000
1552029673343.7500000000,17,-4.4400000000,A01BBE,5,1552029657000
1552029673359.3798828125,17,-0.9200000000,A01BBE,5,1552029657000
1552029673375.0000000000,17,2.2000000000,A01BBE,5,1552029657000
1552029673390.6201171875,17,4.8300000000,A01BBE,5,1552029657000
1552029673406.2500000000,17,6.9900000000,A01BBE,5,1552029657000
1552029673421.8798828125,17,8.7500000000,A01BBE,5,1552029657000
1552029673437.5000000000,17,10.1500000000,A01BBE,5,1552029657000
1552029673453.1201171875,17,11.1600000000,A01BBE,5,1552029657000
1552029673468.7500000000,17,11.7900000000,A01BBE,5,1552029657000
1552029673484.3798828125,17,12.0300000000,A01BBE,5,1552029657000
1552029673500.0000000000,17,12.0400000000,A01BBE,5,1552029657000
1552029673515.6201171875,17,12.0100000000,A01BBE,5,1552029657000
1552029673531.2500000000,17,12.1400000000,A01BBE,5,1552029657000
1552029673546.8798828125,17,12.5600000000,A01BBE,5,1552029657000
1552029673562.5000000000,17,13.2500000000,A01BBE,5,1552029657000
1552029673578.1201171875,17,14.1000000000,A01BBE,5,1552029657000
1552029673593.7500000000,17,14.9300000000,A01BBE,5,1552029657000
1552029673609.3798828125,17,15.6100000000,A01BBE,5,1552029657000
1552029673625.0000000000,17,16.0100000000,A01BBE,5,1552029657000
1552029673640.6201171875,17,16.1100000000,A01BBE,5,1552029657000
1552029673656.2500000000,17,15.9400000000,A01BBE,5,1552029657000
1552029673671.8798828125,17,15.5100000000,A01BBE,5,1552029657000
1552029673687.5000000000,17,14.8500000000,A01BBE,5,1552029657000
1552029673703.1201171875,17,13.9300000000,A01BBE,5,1552029657000
1552029673718.7500000000,17,12.6500000000,A01BBE,5,1552029657000
1552029673734.3798828125,17,10.9800000000,A01BBE,5,1552029657000
1552029673750.0000000000,17,8.9600000000,A01BBE,5,1552029657000
1552029673765.6201171875,17,6.8100000000,A01BBE,5,1552029657000
1552029673781.2500000000,17,4.8500000000,A01BBE,5,1552029657000
1552029673796.8798828125,17,3.3300000000,A01BBE,5,1552029657000
1552029673812.5000000000,17,2.3900000000,A01BBE,5,1552029657000
1552029673828.1201171875,17,1.9100000000,A01BBE,5,1552029657000
1552029673843.7500000000,17,1.6000000000,A01BBE,5,1552029657000
1552029673859.3798828125,17,1.1900000000,A01BBE,5,1552029657000
1552029673875.0000000000,17,0.5000000000,A01BBE,5,1552029657000
1552029673890.6201171875,17,-0.4200000000,A01BBE,5,1552029657000
1552029673906.2500000000,17,-1.4300000000,A01BBE,5,1552029657000
1552029673921.8798828125,17,-2.2900000000,A01BBE,5,1552029657000
1552029673937.5000000000,17,-2.9400000000,A01BBE,5,1552029657000
1552029673953.1201171875,17,-3.4000000000,A01BBE,5,1552029657000
1552029673968.7500000000,17,-3.8100000000,A01BBE,5,1552029657000
1552029673984.3798828125,17,-4.3400000000,A01BBE,5,1552029657000
1552029674000.0000000000,17,-5.0800000000,A01BBE,5,1552029657000
1552029674015.6201171875,17,-6.1100000000,A01BBE,5,1552029657000
1552029674031.2500000000,17,-7.4900000000,A01BBE,5,1552029657000
1552029674046.8798828125,17,-9.2500000000,A01BBE,5,1552029657000
1552029674062.5000000000,17,-11.3800000000,A01BBE,5,1552029657000
1552029674078.1201171875,17,-13.7400000000,A01BBE,5,1552029657000
1552029674093.7500000000,17,-16.0600000000,A01BBE,5,1552029657000
1552029674109.3798828125,17,-17.8900000000,A01BBE,5,1552029657000
1552029674125.0000000000,17,-18.8100000000,A01BBE,5,1552029657000
1552029674140.6201171875,17,-18.5000000000,A01BBE,5,1552029657000
1552029674156.2500000000,17,-16.9500000000,A01BBE,5,1552029657000
1552029674171.8798828125,17,-14.3600000000,A01BBE,5,1552029657000
1552029674187.5000000000,17,-11.1100000000,A01BBE,5,1552029657000
1552029674203.1201171875,17,-7.5900000000,A01BBE,5,1552029657000
1552029674218.7500000000,17,-4.1100000000,A01BBE,5,1552029657000
1552029674234.3798828125,17,-0.8700000000,A01BBE,5,1552029657000
1552029674250.0000000000,17,2.0000000000,A01BBE,5,1552029657000
1552029674265.6201171875,17,4.3700000000,A01BBE,5,1552029657000
1552029674281.2500000000,17,6.1400000000,A01BBE,5,1552029657000
1552029674296.8798828125,17,7.2400000000,A01BBE,5,1552029657000
1552029674312.5000000000,17,7.6900000000,A01BBE,5,1552029657000
1552029674328.1201171875,17,7.6000000000,A01BBE,5,1552029657000
1552029674343.7500000000,17,7.1700000000,A01BBE,5,1552029657000
1552029674359.3798828125,17,6.6100000000,A01BBE,5,1552029657000
1552029674375.0000000000,17,6.0900000000,A01BBE,5,1552029657000
1552029674390.6201171875,17,5.7500000000,A01BBE,5,1552029657000
1552029674406.2500000000,17,5.6400000000,A01BBE,5,1552029657000
1552029674421.8798828125,17,5.7900000000,A01BBE,5,1552029657000
1552029674437.5000000000,17,6.1900000000,A01BBE,5,1552029657000
1552029674453.1201171875,17,6.7900000000,A01BBE,5,1552029657000
1552029674468.7500000000,17,7.5300000000,A01BBE,5,1552029657000
1552029674484.3798828125,17,8.3500000000,A01BBE,5,1552029657000
1552029674500.0000000000,17,9.1800000000,A01BBE,5,1552029657000
1552029674515.6201171875,17,9.9400000000,A01BBE,5,1552029657000
1552029674531.2500000000,17,10.4800000000,A01BBE,5,1552029657000
1552029674546.8798828125,17,10.6700000000,A01BBE,5,1552029657000
1552029674562.5000000000,17,10.4100000000,A01BBE,5,1552029657000
1552029674578.1201171875,17,9.7200000000,A01BBE,5,1552029657000
1552029674593.7500000000,17,8.7200000000,A01BBE,5,1552029657000
1552029674609.3798828125,17,7.6000000000,A01BBE,5,1552029657000
1552029674625.0000000000,17,6.5200000000,A01BBE,5,1552029657000
1552029674640.6201171875,17,5.5400000000,A01BBE,5,1552029657000
1552029674656.2500000000,17,4.5600000000,A01BBE,5,1552029657000
1552029674671.8798828125,17,3.4700000000,A01BBE,5,1552029657000
1552029674687.5000000000,17,2.1500000000,A01BBE,5,1552029657000
1552029674703.1201171875,17,0.6000000000,A01BBE,5,1552029657000
1552029674718.7500000000,17,-1.0700000000,A01BBE,5,1552029657000
1552029674734.3798828125,17,-2.7100000000,A01BBE,5,1552029657000
1552029674750.0000000000,17,-4.2200000000,A01BBE,5,1552029657000
1552029674765.6201171875,17,-5.5800000000,A01BBE,5,1552029657000
1552029674781.2500000000,17,-6.8500000000,A01BBE,5,1552029657000
1552029674796.8798828125,17,-8.0600000000,A01BBE,5,1552029657000
1552029674812.5000000000,17,-9.2400000000,A01BBE,5,1552029657000
1552029674828.1201171875,17,-10.3800000000,A01BBE,5,1552029657000
1552029674843.7500000000,17,-11.5200000000,A01BBE,5,1552029657000
1552029674859.3798828125,17,-12.7200000000,A01BBE,5,1552029657000
1552029674875.0000000000,17,-14.1000000000,A01BBE,5,1552029657000
1552029674890.6201171875,17,-15.7600000000,A01BBE,5,1552029657000
1552029674906.2500000000,17,-17.6700000000,A01BBE,5,1552029657000
1552029674921.8798828125,17,-19.6200000000,A01BBE,5,1552029657000
1552029674937.5000000000,17,-21.2500000000,A01BBE,5,1552029657000
1552029674953.1201171875,17,-22.1400000000,A01BBE,5,1552029657000
1552029674968.7500000000,17,-21.9500000000,A01BBE,5,1552029657000
1552029674984.3798828125,17,-20.5400000000,A01BBE,5,1552029657000
1552029675000.0000000000,17,-18.0100000000,A01BBE,5,1552029657000
1552029675015.6201171875,17,-14.6900000000,A01BBE,5,1552029657000
1552029675031.2500000000,17,-11.0000000000,A01BBE,5,1552029657000
1552029675046.8798828125,17,-7.3700000000,A01BBE,5,1552029657000
1552029675062.5000000000,17,-4.0600000000,A01BBE,5,1552029657000
1552029675078.1201171875,17,-1.2000000000,A01BBE,5,1552029657000
1552029675093.7500000000,17,1.1800000000,A01BBE,5,1552029657000
1552029675109.3798828125,17,3.1400000000,A01BBE,5,1552029657000
1552029675125.0000000000,17,4.6600000000,A01BBE,5,1552029657000
1552029675140.6201171875,17,5.7200000000,A01BBE,5,1552029657000
1552029675156.2500000000,17,6.2400000000,A01BBE,5,1552029657000
1552029675171.8798828125,17,6.2700000000,A01BBE,5,1552029657000
1552029675187.5000000000,17,5.9400000000,A01BBE,5,1552029657000
1552029675203.1201171875,17,5.4800000000,A01BBE,5,1552029657000
1552029675218.7500000000,17,5.1500000000,A01BBE,5,1552029657000
1552029675234.3798828125,17,5.1500000000,A01BBE,5,1552029657000
1552029675250.0000000000,17,5.5300000000,A01BBE,5,1552029657000
1552029675265.6201171875,17,6.1700000000,A01BBE,5,1552029657000
1552029675281.2500000000,17,6.9000000000,A01BBE,5,1552029657000
1552029675296.8798828125,17,7.5100000000,A01BBE,5,1552029657000
1552029675312.5000000000,17,7.9100000000,A01BBE,5,1552029657000
1552029675328.1201171875,17,8.1300000000,A01BBE,5,1552029657000
1552029675343.7500000000,17,8.2600000000,A01BBE,5,1552029657000
1552029675359.3798828125,17,8.4100000000,A01BBE,5,1552029657000
1552029675375.0000000000,17,8.6600000000,A01BBE,5,1552029657000
1552029675390.6201171875,17,8.9400000000,A01BBE,5,1552029657000
1552029675406.2500000000,17,9.1400000000,A01BBE,5,1552029657000
1552029675421.8798828125,17,9.1000000000,A01BBE,5,1552029657000
1552029675437.5000000000,17,8.6700000000,A01BBE,5,1552029657000
1552029675453.1201171875,17,7.7900000000,A01BBE,5,1552029657000
1552029675468.7500000000,17,6.5300000000,A01BBE,5,1552029657000
1552029675484.3798828125,17,5.0500000000,A01BBE,5,1552029657000
1552029675500.0000000000,17,3.5800000000,A01BBE,5,1552029657000
1552029675515.6201171875,17,2.3200000000,A01BBE,5,1552029657000
1552029675531.2500000000,17,1.3600000000,A01BBE,5,1552029657000
1552029675546.8798828125,17,0.6600000000,A01BBE,5,1552029657000
1552029675562.5000000000,17,0.0700000000,A01BBE,5,1552029657000
1552029675578.1201171875,17,-0.5900000000,A01BBE,5,1552029657000
1552029675593.7500000000,17,-1.4600000000,A01BBE,5,1552029657000
1552029675609.3798828125,17,-2.5100000000,A01BBE,5,1552029657000
1552029675625.0000000000,17,-3.6500000000,A01BBE,5,1552029657000
1552029675640.6201171875,17,-4.7200000000,A01BBE,5,1552029657000
1552029675656.2500000000,17,-5.6300000000,A01BBE,5,1552029657000
1552029675671.8798828125,17,-6.4200000000,A01BBE,5,1552029657000
1552029675687.5000000000,17,-7.1700000000,A01BBE,5,1552029657000
1552029675703.1201171875,17,-8.0700000000,A01BBE,5,1552029657000
1552029675718.7500000000,17,-9.2600000000,A01BBE,5,1552029657000
1552029675734.3798828125,17,-10.8500000000,A01BBE,5,1552029657000
1552029675750.0000000000,17,-12.8400000000,A01BBE,5,1552029657000
1552029675765.6201171875,17,-15.1200000000,A01BBE,5,1552029657000
1552029675781.2500000000,17,-17.4800000000,A01BBE,5,1552029657000
1552029675796.8798828125,17,-19.5500000000,A01BBE,5,1552029657000
1552029675812.5000000000,17,-20.9500000000,A01BBE,5,1552029657000
1552029675828.1201171875,17,-21.3500000000,A01BBE,5,1552029657000
1552029675843.7500000000,17,-20.5800000000,A01BBE,5,1552029657000
1552029675859.3798828125,17,-18.6500000000,A01BBE,5,1552029657000
1552029675875.0000000000,17,-15.8300000000,A01BBE,5,1552029657000
1552029675890.6201171875,17,-12.4000000000,A01BBE,5,1552029657000
1552029675906.2500000000,17,-8.6700000000,A01BBE,5,1552029657000
1552029675921.8798828125,17,-4.9000000000,A01BBE,5,1552029657000
1552029675937.5000000000,17,-1.2900000000,A01BBE,5,1552029657000
1552029675953.1201171875,17,1.9700000000,A01BBE,5,1552029657000
1552029675968.7500000000,17,4.7200000000,A01BBE,5,1552029657000
1552029675984.3798828125,17,6.8700000000,A01BBE,5,1552029657000
1552029676000.0000000000,17,8.4300000000,A01BBE,5,1552029657000
1552029676015.6201171875,17,9.5600000000,A01BBE,5,1552029657000
1552029676031.2500000000,17,10.4400000000,A01BBE,5,1552029657000
1552029676046.8798828125,17,11.2600000000,A01BBE,5,1552029657000
1552029676062.5000000000,17,12.1100000000,A01BBE,5,1552029657000
1552029676078.1201171875,17,12.9600000000,A01BBE,5,1552029657000
1552029676093.7500000000,17,13.7400000000,A01BBE,5,1552029657000
1552029676109.3798828125,17,14.3900000000,A01BBE,5,1552029657000
1552029676125.0000000000,17,14.9000000000,A01BBE,5,1552029657000
1552029676140.6201171875,17,15.3500000000,A01BBE,5,1552029657000
1552029676156.2500000000,17,15.7900000000,A01BBE,5,1552029657000
1552029676171.8798828125,17,16.2600000000,A01BBE,5,1552029657000
1552029676187.5000000000,17,16.7900000000,A01BBE,5,1552029657000
1552029676203.1201171875,17,17.3400000000,A01BBE,5,1552029657000
1552029676218.7500000000,17,17.8500000000,A01BBE,5,1552029657000
1552029676234.3798828125,17,18.2200000000,A01BBE,5,1552029657000
1552029676250.0000000000,17,18.3300000000,A01BBE,5,1552029657000
1552029676265.6201171875,17,18.0400000000,A01BBE,5,1552029657000
1552029676281.2500000000,17,17.3100000000,A01BBE,5,1552029657000
1552029676296.8798828125,17,16.1400000000,A01BBE,5,1552029657000
1552029676312.5000000000,17,14.6600000000,A01BBE,5,1552029657000
1552029676328.1201171875,17,12.9900000000,A01BBE,5,1552029657000
1552029676343.7500000000,17,11.2900000000,A01BBE,5,1552029657000
1552029676359.3798828125,17,9.6500000000,A01BBE,5,1552029657000
1552029676375.0000000000,17,8.1500000000,A01BBE,5,1552029657000
1552029676390.6201171875,17,6.8800000000,A01BBE,5,1552029657000
1552029676406.2500000000,17,5.9100000000,A01BBE,5,1552029657000
1552029676421.8798828125,17,5.2800000000,A01BBE,5,1552029657000
1552029676437.5000000000,17,4.8900000000,A01BBE,5,1552029657000
1552029676453.1201171875,17,4.5700000000,A01BBE,5,1552029657000
1552029676468.7500000000,17,4.0700000000,A01BBE,5,1552029657000
1552029676484.3798828125,17,3.2000000000,A01BBE,5,1552029657000
1552029676500.0000000000,17,1.9200000000,A01BBE,5,1552029657000
1552029676515.6201171875,17,0.3700000000,A01BBE,5,1552029657000
1552029676531.2500000000,17,-1.2100000000,A01BBE,5,1552029657000
1552029676546.8798828125,17,-2.6200000000,A01BBE,5,1552029657000
1552029676562.5000000000,17,-3.7900000000,A01BBE,5,1552029657000
1552029676578.1201171875,17,-4.8100000000,A01BBE,5,1552029657000
1552029676593.7500000000,17,-5.8800000000,A01BBE,5,1552029657000
1552029676609.3798828125,17,-7.2200000000,A01BBE,5,1552029657000
1552029676625.0000000000,17,-8.9800000000,A01BBE,5,1552029657000
1552029676640.6201171875,17,-11.1800000000,A01BBE,5,1552029657000
1552029676656.2500000000,17,-13.7100000000,A01BBE,5,1552029657000
1552029676671.8798828125,17,-16.3200000000,A01BBE,5,1552029657000
1552029676687.5000000000,17,-18.6700000000,A01BBE,5,1552029657000
1552029676703.1201171875,17,-20.4200000000,A01BBE,5,1552029657000
1552029676718.7500000000,17,-21.2400000000,A01BBE,5,1552029657000
1552029676734.3798828125,17,-20.9400000000,A01BBE,5,1552029657000
1552029676750.0000000000,17,-19.4800000000,A01BBE,5,1552029657000
1552029676765.6201171875,17,-16.9700000000,A01BBE,5,1552029657000
1552029676781.2500000000,17,-13.7300000000,A01BBE,5,1552029657000
1552029676796.8798828125,17,-10.1100000000,A01BBE,5,1552029657000
1552029676812.5000000000,17,-6.5400000000,A01BBE,5,1552029657000
1552029676828.1201171875,17,-3.3800000000,A01BBE,5,1552029657000
1552029676843.7500000000,17,-0.8800000000,A01BBE,5,1552029657000
1552029676859.3798828125,17,0.8400000000,A01BBE,5,1552029657000
1552029676875.0000000000,17,1.7400000000,A01BBE,5,1552029657000
1552029676890.6201171875,17,1.8600000000,A01BBE,5,1552029657000
1552029676906.2500000000,17,1.2900000000,A01BBE,5,1552029657000
1552029676921.8798828125,17,0.1600000000,A01BBE,5,1552029657000
1552029676937.5000000000,17,-1.3300000000,A01BBE,5,1552029657000
1552029676953.1201171875,17,-2.8700000000,A01BBE,5,1552029657000
1552029676968.7500000000,17,-4.1300000000,A01BBE,5,1552029657000
1552029676984.3798828125,17,-4.8900000000,A01BBE,5,1552029657000
1552029677000.0000000000,17,-5.1100000000,A01BBE,5,1552029657000
1552029677015.6201171875,17,-4.9600000000,A01BBE,5,1552029657000
1552029677031.2500000000,17,-4.7400000000,A01BBE,5,1552029657000
1552029677046.8798828125,17,-4.7900000000,A01BBE,5,1552029657000
1552029677062.5000000000,17,-5.2800000000,A01BBE,5,1552029657000
1552029677078.1201171875,17,-6.2100000000,A01BBE,5,1552029657000
1552029677093.7500000000,17,-7.4700000000,A01BBE,5,1552029657000
1552029677109.3798828125,17,-8.9300000000,A01BBE,5,1552029657000
1552029677125.0000000000,17,-10.5600000000,A01BBE,5,1552029657000
1552029677140.6201171875,17,-12.4300000000,A01BBE,5,1552029657000
1552029677156.2500000000,17,-14.6900000000,A01BBE,5,1552029657000
1552029677171.8798828125,17,-17.4300000000,A01BBE,5,1552029657000
1552029677187.5000000000,17,-20.6800000000,A01BBE,5,1552029657000
1552029677203.1201171875,17,-24.3200000000,A01BBE,5,1552029657000
1552029677218.7500000000,17,-28.2100000000,A01BBE,5,1552029657000
1552029677234.3798828125,17,-32.2100000000,A01BBE,5,1552029657000
1552029677250.0000000000,17,-36.2100000000,A01BBE,5,1552029657000
1552029677265.6201171875,17,-40.2100000000,A01BBE,5,1552029657000
1552029677281.2500000000,17,-44.2900000000,A01BBE,5,1552029657000
1552029677296.8798828125,17,-48.5900000000,A01BBE,5,1552029657000
1552029677312.5000000000,17,-53.2700000000,A01BBE,5,1552029657000
1552029677328.1201171875,17,-58.4200000000,A01BBE,5,1552029657000
1552029677343.7500000000,17,-64.0300000000,A01BBE,5,1552029657000
1552029677359.3798828125,17,-69.9000000000,A01BBE,5,1552029657000
1552029677375.0000000000,17,-75.7400000000,A01BBE,5,1552029657000
1552029677390.6201171875,17,-81.2600000000,A01BBE,5,1552029657000
1552029677406.2500000000,17,-86.3600000000,A01BBE,5,1552029657000
1552029677421.8798828125,17,-91.1500000000,A01BBE,5,1552029657000
1552029677437.5000000000,17,-95.9400000000,A01BBE,5,1552029657000
1552029677453.1201171875,17,-100.9200000000,A01BBE,5,1552029657000
1552029677468.7500000000,17,-106.0100000000,A01BBE,5,1552029657000
1552029677484.3798828125,17,-110.7900000000,A01BBE,5,1552029657000
1552029677500.0000000000,17,-114.6400000000,A01BBE,5,1552029657000
1552029677515.6201171875,17,-117.0500000000,A01BBE,5,1552029657000
1552029677531.2500000000,17,-117.7800000000,A01BBE,5,1552029657000
1552029677546.8798828125,17,-117.0000000000,A01BBE,5,1552029657000
1552029677562.5000000000,17,-115.0400000000,A01BBE,5,1552029657000
1552029677578.1201171875,17,-112.2600000000,A01BBE,5,1552029657000
1552029677593.7500000000,17,-108.9800000000,A01BBE,5,1552029657000
1552029677609.3798828125,17,-105.4900000000,A01BBE,5,1552029657000
1552029677625.0000000000,17,-102.1000000000,A01BBE,5,1552029657000
1552029677640.6201171875,17,-98.9400000000,A01BBE,5,1552029657000
1552029677656.2500000000,17,-95.7800000000,A01BBE,5,1552029657000
1552029677671.8798828125,17,-92.0500000000,A01BBE,5,1552029657000
1552029677687.5000000000,17,-87.1600000000,A01BBE,5,1552029657000
1552029677703.1201171875,17,-81.0900000000,A01BBE,5,1552029657000
1552029677718.7500000000,17,-74.7100000000,A01BBE,5,1552029657000
1552029677734.3798828125,17,-69.6500000000,A01BBE,5,1552029657000
1552029677750.0000000000,17,-67.5300000000,A01BBE,5,1552029657000
1552029677765.6201171875,17,-69.2100000000,A01BBE,5,1552029657000
1552029677781.2500000000,17,-74.2300000000,A01BBE,5,1552029657000
1552029677796.8798828125,17,-80.9800000000,A01BBE,5,1552029657000
1552029677812.5000000000,17,-87.2400000000,A01BBE,5,1552029657000
1552029677828.1201171875,17,-90.9600000000,A01BBE,5,1552029657000
1552029677843.7500000000,17,-90.7300000000,A01BBE,5,1552029657000
1552029677859.3798828125,17,-85.7700000000,A01BBE,5,1552029657000
1552029677875.0000000000,17,-75.8800000000,A01BBE,5,1552029657000
1552029677890.6201171875,17,-61.3700000000,A01BBE,5,1552029657000
1552029677906.2500000000,17,-43.1500000000,A01BBE,5,1552029657000
1552029677921.8798828125,17,-22.7300000000,A01BBE,5,1552029657000
1552029677937.5000000000,17,-1.8400000000,A01BBE,5,1552029657000
1552029677953.1201171875,17,18.1200000000,A01BBE,5,1552029657000
1552029677968.7500000000,17,36.6300000000,A01BBE,5,1552029657000
1552029677984.3798828125,17,54.1100000000,A01BBE,5,1552029657000
1552029678000.0000000000,17,71.2000000000,A01BBE,5,1552029657000
1552029678015.6201171875,17,88.0400000000,A01BBE,5,1552029657000
1552029678031.2500000000,17,103.7800000000,A01BBE,5,1552029657000
1552029678046.8798828125,17,117.0200000000,A01BBE,5,1552029657000
1552029678062.5000000000,17,126.6900000000,A01BBE,5,1552029657000
1552029678078.1201171875,17,133.0100000000,A01BBE,5,1552029657000
1552029678093.7500000000,17,137.7800000000,A01BBE,5,1552029657000
1552029678109.3798828125,17,143.8300000000,A01BBE,5,1552029657000
1552029678125.0000000000,17,153.9400000000,A01BBE,5,1552029657000
1552029678140.6201171875,17,169.7900000000,A01BBE,5,1552029657000
1552029678156.2500000000,17,191.4000000000,A01BBE,5,1552029657000
1552029678171.8798828125,17,217.3000000000,A01BBE,5,1552029657000
1552029678187.5000000000,17,245.1100000000,A01BBE,5,1552029657000
1552029678203.1201171875,17,272.2700000000,A01BBE,5,1552029657000
1552029678218.7500000000,17,296.5200000000,A01BBE,5,1552029657000
1552029678234.3798828125,17,316.3400000000,A01BBE,5,1552029657000
1552029678250.0000000000,17,331.0700000000,A01BBE,5,1552029657000
1552029678265.6201171875,17,340.8900000000,A01BBE,5,1552029657000
1552029678281.2500000000,17,346.5400000000,A01BBE,5,1552029657000
1552029678296.8798828125,17,348.9400000000,A01BBE,5,1552029657000
1552029678312.5000000000,17,348.7000000000,A01BBE,5,1552029657000
1552029678328.1201171875,17,345.8500000000,A01BBE,5,1552029657000
1552029678343.7500000000,17,339.9100000000,A01BBE,5,1552029657000
1552029678359.3798828125,17,330.1900000000,A01BBE,5,1552029657000
1552029678375.0000000000,17,316.2500000000,A01BBE,5,1552029657000
1552029678390.6201171875,17,297.9600000000,A01BBE,5,1552029657000
1552029678406.2500000000,17,275.5400000000,A01BBE,5,1552029657000
1552029678421.8798828125,17,249.2200000000,A01BBE,5,1552029657000
1552029678437.5000000000,17,219.1000000000,A01BBE,5,1552029657000
1552029678453.1201171875,17,185.2400000000,A01BBE,5,1552029657000
1552029678468.7500000000,17,147.8200000000,A01BBE,5,1552029657000
1552029678484.3798828125,17,107.4400000000,A01BBE,5,1552029657000
1552029678500.0000000000,17,65.0600000000,A01BBE,5,1552029657000
1552029678515.6201171875,17,21.9500000000,A01BBE,5,1552029657000
1552029678531.2500000000,17,-20.8400000000,A01BBE,5,1552029657000
1552029678546.8798828125,17,-62.8600000000,A01BBE,5,1552029657000
1552029678562.5000000000,17,-104.2600000000,A01BBE,5,1552029657000
1552029678578.1201171875,17,-145.1900000000,A01BBE,5,1552029657000
1552029678593.7500000000,17,-185.1100000000,A01BBE,5,1552029657000
1552029678609.3798828125,17,-222.1700000000,A01BBE,5,1552029657000
1552029678625.0000000000,17,-253.2900000000,A01BBE,5,1552029657000
1552029678640.6201171875,17,-275.1000000000,A01BBE,5,1552029657000
1552029678656.2500000000,17,-285.2900000000,A01BBE,5,1552029657000
1552029678671.8798828125,17,-283.7400000000,A01BBE,5,1552029657000
1552029678687.5000000000,17,-272.6100000000,A01BBE,5,1552029657000
1552029678703.1201171875,17,-255.1800000000,A01BBE,5,1552029657000
1552029678718.7500000000,17,-234.1400000000,A01BBE,5,1552029657000
1552029678734.3798828125,17,-210.3000000000,A01BBE,5,1552029657000
1552029678750.0000000000,17,-182.7900000000,A01BBE,5,1552029657000
1552029678765.6201171875,17,-150.4700000000,A01BBE,5,1552029657000
1552029678781.2500000000,17,-113.7000000000,A01BBE,5,1552029657000
1552029678796.8798828125,17,-75.0700000000,A01BBE,5,1552029657000
1552029678812.5000000000,17,-38.8200000000,A01BBE,5,1552029657000
1552029678828.1201171875,17,-9.0000000000,A01BBE,5,1552029657000
1552029678843.7500000000,17,12.5800000000,A01BBE,5,1552029657000
1552029678859.3798828125,17,27.1800000000,A01BBE,5,1552029657000
1552029678875.0000000000,17,38.2200000000,A01BBE,5,1552029657000
1552029678890.6201171875,17,49.1900000000,A01BBE,5,1552029657000
1552029678906.2500000000,17,61.9200000000,A01BBE,5,1552029657000
1552029678921.8798828125,17,75.9000000000,A01BBE,5,1552029657000
1552029678937.5000000000,17,89.4300000000,A01BBE,5,1552029657000
1552029678953.1201171875,17,100.5100000000,A01BBE,5,1552029657000
1552029678968.7500000000,17,107.8800000000,A01BBE,5,1552029657000
1552029678984.3798828125,17,111.7100000000,A01BBE,5,1552029657000
1552029679000.0000000000,17,113.5200000000,A01BBE,5,1552029657000
1552029679015.6201171875,17,115.0900000000,A01BBE,5,1552029657000
1552029679031.2500000000,17,117.4800000000,A01BBE,5,1552029657000
1552029679046.8798828125,17,120.4100000000,A01BBE,5,1552029657000
1552029679062.5000000000,17,122.3400000000,A01BBE,5,1552029657000
1552029679078.1201171875,17,122.1300000000,A01BBE,5,1552029657000
1552029679093.7500000000,17,118.4400000000,A01BBE,5,1552029657000
1552029679109.3798828125,17,110.2400000000,A01BBE,5,1552029657000
1552029679125.0000000000,17,97.4700000000,A01BBE,5,1552029657000
1552029679140.6201171875,17,81.5200000000,A01BBE,5,1552029657000
1552029679156.2500000000,17,64.5900000000,A01BBE,5,1552029657000
1552029679171.8798828125,17,48.7400000000,A01BBE,5,1552029657000
1552029679187.5000000000,17,35.0200000000,A01BBE,5,1552029657000
1552029679203.1201171875,17,23.3100000000,A01BBE,5,1552029657000
1552029679218.7500000000,17,14.1600000000,A01BBE,5,1552029657000
1552029679234.3798828125,17,7.1000000000,A01BBE,5,1552029657000
1552029679250.0000000000,17,0.6300000000,A01BBE,5,1552029657000
1552029679265.6201171875,17,-6.9800000000,A01BBE,5,1552029657000
1552029679281.2500000000,17,-16.4600000000,A01BBE,5,1552029657000
1552029679296.8798828125,17,-27.0700000000,A01BBE,5,1552029657000
1552029679312.5000000000,17,-36.7600000000,A01BBE,5,1552029657000
1552029679328.1201171875,17,-42.6300000000,A01BBE,5,1552029657000
1552029679343.7500000000,17,-41.5600000000,A01BBE,5,1552029657000
1552029679359.3798828125,17,-29.4400000000,A01BBE,5,1552029657000
1552029679375.0000000000,17,-5.4000000000,A01BBE,5,1552029657000
1552029679390.6201171875,17,26.8300000000,A01BBE,5,1552029657000
1552029679406.2500000000,17,60.0400000000,A01BBE,5,1552029657000
1552029679421.8798828125,17,86.6800000000,A01BBE,5,1552029657000
1552029679437.5000000000,17,101.4200000000,A01BBE,5,1552029657000
1552029679453.1201171875,17,102.6700000000,A01BBE,5,1552029657000
1552029679468.7500000000,17,92.4500000000,A01BBE,5,1552029657000
1552029679484.3798828125,17,63.5600000000,A01BBE,5,1552029657000
1552029679500.0000000000,17,18.3000000000,A01BBE,5,1552029657000
1552029679515.6201171875,17,-32.6200000000,A01BBE,5,1552029657000
1552029679531.2500000000,17,-76.7600000000,A01BBE,5,1552029657000
1552029679546.8798828125,17,-107.9900000000,A01BBE,5,1552029657000
1552029679562.5000000000,17,-126.8900000000,A01BBE,5,1552029657000
1552029679578.1201171875,17,-136.5400000000,A01BBE,5,1552029657000
1552029679593.7500000000,17,-139.4900000000,A01BBE,5,1552029657000
1552029679609.3798828125,17,-137.4300000000,A01BBE,5,1552029657000
1552029679625.0000000000,17,-131.9700000000,A01BBE,5,1552029657000
1552029679640.6201171875,17,-123.1000000000,A01BBE,5,1552029657000
1552029679656.2500000000,17,-112.0200000000,A01BBE,5,1552029657000
1552029679671.8798828125,17,-101.1400000000,A01BBE,5,1552029657000
1552029679687.5000000000,17,-92.6100000000,A01BBE,5,1552029657000
1552029679703.1201171875,17,-86.9800000000,A01BBE,5,1552029657000
1552029679718.7500000000,17,-83.1500000000,A01BBE,5,1552029657000
1552029679734.3798828125,17,-79.4300000000,A01BBE,5,1552029657000
1552029679750.0000000000,17,-74.7300000000,A01BBE,5,1552029657000
1552029679765.6201171875,17,-69.0200000000,A01BBE,5,1552029657000
1552029679781.2500000000,17,-61.5600000000,A01BBE,5,1552029657000
1552029679796.8798828125,17,-52.7700000000,A01BBE,5,1552029657000
1552029679812.5000000000,17,-44.1200000000,A01BBE,5,1552029657000
1552029679828.1201171875,17,-37.1200000000,A01BBE,5,1552029657000
1552029679843.7500000000,17,-32.2400000000,A01BBE,5,1552029657000
1552029679859.3798828125,17,-28.7700000000,A01BBE,5,1552029657000
1552029679875.0000000000,17,-25.5800000000,A01BBE,5,1552029657000
1552029679890.6201171875,17,-21.9000000000,A01BBE,5,1552029657000
1552029679906.2500000000,17,-17.6500000000,A01BBE,5,1552029657000
1552029679921.8798828125,17,-12.2500000000,A01BBE,5,1552029657000
1552029679937.5000000000,17,-5.9000000000,A01BBE,5,1552029657000
1552029679953.1201171875,17,0.5000000000,A01BBE,5,1552029657000
1552029679968.7500000000,17,6.0400000000,A01BBE,5,1552029657000
1552029679984.3798828125,17,10.3400000000,A01BBE,5,1552029657000
1552029680000.0000000000,17,13.7600000000,A01BBE,5,1552029657000
1552029680015.6201171875,17,16.9300000000,A01BBE,5,1552029657000
1552029680031.2500000000,17,20.2900000000,A01BBE,5,1552029657000
1552029680046.8798828125,17,23.8300000000,A01BBE,5,1552029657000
1552029680062.5000000000,17,27.8400000000,A01BBE,5,1552029657000
1552029680078.1201171875,17,32.1300000000,A01BBE,5,1552029657000
1552029680093.7500000000,17,36.1400000000,A01BBE,5,1552029657000
1552029680109.3798828125,17,39.1700000000,A01BBE,5,1552029657000
1552029680125.0000000000,17,40.7800000000,A01BBE,5,1552029657000
1552029680140.6201171875,17,40.8900000000,A01BBE,5,1552029657000
1552029680156.2500000000,17,39.5600000000,A01BBE,5,1552029657000
1552029680171.8798828125,17,36.9200000000,A01BBE,5,1552029657000
1552029680187.5000000000,17,32.7400000000,A01BBE,5,1552029657000
1552029680203.1201171875,17,27.3200000000,A01BBE,5,1552029657000
1552029680218.7500000000,17,20.8100000000,A01BBE,5,1552029657000
1552029680234.3798828125,17,13.2700000000,A01BBE,5,1552029657000
1552029680250.0000000000,17,4.8400000000,A01BBE,5,1552029657000
1552029680265.6201171875,17,-4.2300000000,A01BBE,5,1552029657000
1552029680281.2500000000,17,-13.5100000000,A01BBE,5,1552029657000
1552029680296.8798828125,17,-22.5300000000,A01BBE,5,1552029657000
1552029680312.5000000000,17,-30.0300000000,A01BBE,5,1552029657000
1552029680328.1201171875,17,-36.1700000000,A01BBE,5,1552029657000
1552029680343.7500000000,17,-40.8300000000,A01BBE,5,1552029657000
1552029680359.3798828125,17,-43.9900000000,A01BBE,5,1552029657000
1552029680375.0000000000,17,-45.7700000000,A01BBE,5,1552029657000
1552029680390.6201171875,17,-46.3600000000,A01BBE,5,1552029657000
1552029680406.2500000000,17,-46.0000000000,A01BBE,5,1552029657000
1552029680421.8798828125,17,-44.9000000000,A01BBE,5,1552029657000
1552029680437.5000000000,17,-43.2300000000,A01BBE,5,1552029657000
1552029680453.1201171875,17,-41.1400000000,A01BBE,5,1552029657000
1552029680468.7500000000,17,-38.8300000000,A01BBE,5,1552029657000
1552029680484.3798828125,17,-36.3400000000,A01BBE,5,1552029657000
1552029680500.0000000000,17,-33.7900000000,A01BBE,5,1552029657000
1552029680515.6201171875,17,-31.3200000000,A01BBE,5,1552029657000
1552029680531.2500000000,17,-29.0600000000,A01BBE,5,1552029657000
1552029680546.8798828125,17,-27.0900000000,A01BBE,5,1552029657000
1552029680562.5000000000,17,-25.4200000000,A01BBE,5,1552029657000
1552029680578.1201171875,17,-23.9300000000,A01BBE,5,1552029657000
1552029680593.7500000000,17,-22.4400000000,A01BBE,5,1552029657000
1552029680609.3798828125,17,-20.8200000000,A01BBE,5,1552029657000
1552029680625.0000000000,17,-18.9900000000,A01BBE,5,1552029657000
1552029680640.6201171875,17,-17.0400000000,A01BBE,5,1552029657000
1552029680656.2500000000,17,-15.2200000000,A01BBE,5,1552029657000
1552029680671.8798828125,17,-13.8200000000,A01BBE,5,1552029657000
1552029680687.5000000000,17,-13.0300000000,A01BBE,5,1552029657000
1552029680703.1201171875,17,-12.8700000000,A01BBE,5,1552029657000
1552029680718.7500000000,17,-13.0300000000,A01BBE,5,1552029657000
1552029680734.3798828125,17,-13.4000000000,A01BBE,5,1552029657000
1552029680750.0000000000,17,-13.3600000000,A01BBE,5,1552029657000
1552029680765.6201171875,17,-12.6600000000,A01BBE,5,1552029657000
1552029680781.2500000000,17,-11.5200000000,A01BBE,5,1552029657000
1552029680796.8798828125,17,-10.4800000000,A01BBE,5,1552029657000
1552029680812.5000000000,17,-10.1800000000,A01BBE,5,1552029657000
1552029680828.1201171875,17,-11.0700000000,A01BBE,5,1552029657000
1552029680843.7500000000,17,-13.1300000000,A01BBE,5,1552029657000
1552029680859.3798828125,17,-15.8200000000,A01BBE,5,1552029657000
1552029680875.0000000000,17,-18.2800000000,A01BBE,5,1552029657000
1552029680890.6201171875,17,-19.7100000000,A01BBE,5,1552029657000
1552029680906.2500000000,17,-19.8000000000,A01BBE,5,1552029657000
1552029680921.8798828125,17,-18.9100000000,A01BBE,5,1552029657000
1552029680937.5000000000,17,-18.0000000000,A01BBE,5,1552029657000
1552029680953.1201171875,17,-18.1900000000,A01BBE,5,1552029657000
1552029680968.7500000000,17,-20.2100000000,A01BBE,5,1552029657000
1552029680984.3798828125,17,-24.0600000000,A01BBE,5,1552029657000
1552029681000.0000000000,17,-28.9200000000,A01BBE,5,1552029657000
1552029681015.6201171875,17,-33.4300000000,A01BBE,5,1552029657000
1552029681031.2500000000,17,-36.5000000000,A01BBE,5,1552029657000
1552029681046.8798828125,17,-37.6400000000,A01BBE,5,1552029657000
1552029681062.5000000000,17,-37.2900000000,A01BBE,5,1552029657000
1552029681078.1201171875,17,-36.4900000000,A01BBE,5,1552029657000
1552029681093.7500000000,17,-36.4400000000,A01BBE,5,1552029657000
1552029681109.3798828125,17,-38.0800000000,A01BBE,5,1552029657000
1552029681125.0000000000,17,-42.0700000000,A01BBE,5,1552029657000
1552029681140.6201171875,17,-48.7500000000,A01BBE,5,1552029657000
1552029681156.2500000000,17,-57.9400000000,A01BBE,5,1552029657000
1552029681171.8798828125,17,-68.2200000000,A01BBE,5,1552029657000
1552029681187.5000000000,17,-76.6300000000,A01BBE,5,1552029657000
1552029681203.1201171875,17,-79.0500000000,A01BBE,5,1552029657000
1552029681218.7500000000,17,-71.6000000000,A01BBE,5,1552029657000
1552029681234.3798828125,17,-52.7300000000,A01BBE,5,1552029657000
1552029681250.0000000000,17,-24.5300000000,A01BBE,5,1552029657000
1552029681265.6201171875,17,7.4600000000,A01BBE,5,1552029657000
1552029681281.2500000000,17,36.3600000000,A01BBE,5,1552029657000
1552029681296.8798828125,17,56.6900000000,A01BBE,5,1552029657000
1552029681312.5000000000,17,66.5400000000,A01BBE,5,1552029657000
1552029681328.1201171875,17,67.6700000000,A01BBE,5,1552029657000
1552029681343.7500000000,17,63.9700000000,A01BBE,5,1552029657000
1552029681359.3798828125,17,59.1000000000,A01BBE,5,1552029657000
1552029681375.0000000000,17,54.8800000000,A01BBE,5,1552029657000
1552029681390.6201171875,17,51.2200000000,A01BBE,5,1552029657000
1552029681406.2500000000,17,47.1900000000,A01BBE,5,1552029657000
1552029681421.8798828125,17,42.4200000000,A01BBE,5,1552029657000
1552029681437.5000000000,17,37.5500000000,A01BBE,5,1552029657000
1552029681453.1201171875,17,33.8900000000,A01BBE,5,1552029657000
1552029681468.7500000000,17,32.3100000000,A01BBE,5,1552029657000
1552029681484.3798828125,17,32.6300000000,A01BBE,5,1552029657000
1552029681500.0000000000,17,33.6700000000,A01BBE,5,1552029657000
1552029681515.6201171875,17,33.9700000000,A01BBE,5,1552029657000
1552029681531.2500000000,17,32.3600000000,A01BBE,5,1552029657000
1552029681546.8798828125,17,28.7400000000,A01BBE,5,1552029657000
1552029681562.5000000000,17,23.9700000000,A01BBE,5,1552029657000
1552029681578.1201171875,17,19.3700000000,A01BBE,5,1552029657000
1552029681593.7500000000,17,16.1100000000,A01BBE,5,1552029657000
1552029681609.3798828125,17,14.7100000000,A01BBE,5,1552029657000
1552029681625.0000000000,17,14.7900000000,A01BBE,5,1552029657000
1552029681640.6201171875,17,15.4100000000,A01BBE,5,1552029657000
1552029681656.2500000000,17,15.4400000000,A01BBE,5,1552029657000
1552029681671.8798828125,17,14.1500000000,A01BBE,5,1552029657000
1552029681687.5000000000,17,11.4900000000,A01BBE,5,1552029657000
1552029681703.1201171875,17,8.0100000000,A01BBE,5,1552029657000
1552029681718.7500000000,17,4.5600000000,A01BBE,5,1552029657000
1552029681734.3798828125,17,1.8800000000,A01BBE,5,1552029657000
1552029681750.0000000000,17,0.2900000000,A01BBE,5,1552029657000
1552029681765.6201171875,17,-0.4400000000,A01BBE,5,1552029657000
1552029681781.2500000000,17,-0.8400000000,A01BBE,5,1552029657000
1552029681796.8798828125,17,-1.5800000000,A01BBE,5,1552029657000
1552029681812.5000000000,17,-3.0700000000,A01BBE,5,1552029657000
1552029681828.1201171875,17,-5.3500000000,A01BBE,5,1552029657000
1552029681843.7500000000,17,-8.1500000000,A01BBE,5,1552029657000
1552029681859.3798828125,17,-11.0300000000,A01BBE,5,1552029657000
1552029681875.0000000000,17,-13.6100000000,A01BBE,5,1552029657000
1552029681890.6201171875,17,-15.7500000000,A01BBE,5,1552029657000
1552029681906.2500000000,17,-17.5500000000,A01BBE,5,1552029657000
1552029681921.8798828125,17,-19.2600000000,A01BBE,5,1552029657000
1552029681937.5000000000,17,-21.1800000000,A01BBE,5,1552029657000
1552029681953.1201171875,17,-23.4900000000,A01BBE,5,1552029657000
1552029681968.7500000000,17,-26.2100000000,A01BBE,5,1552029657000
1552029681984.3798828125,17,-29.2500000000,A01BBE,5,1552029657000
1552029682000.0000000000,17,-32.4300000000,A01BBE,5,1552029657000
1552029682015.6201171875,17,-35.6300000000,A01BBE,5,1552029657000
1552029682031.2500000000,17,-38.8200000000,A01BBE,5,1552029657000
1552029682046.8798828125,17,-42.0200000000,A01BBE,5,1552029657000
1552029682062.5000000000,17,-45.2900000000,A01BBE,5,1552029657000
1552029682078.1201171875,17,-48.6800000000,A01BBE,5,1552029657000
1552029682093.7500000000,17,-52.1700000000,A01BBE,5,1552029657000
1552029682109.3798828125,17,-55.6400000000,A01BBE,5,1552029657000
1552029682125.0000000000,17,-58.9400000000,A01BBE,5,1552029657000
1552029682140.6201171875,17,-61.7800000000,A01BBE,5,1552029657000
1552029682156.2500000000,17,-63.9100000000,A01BBE,5,1552029657000
1552029682171.8798828125,17,-65.0400000000,A01BBE,5,1552029657000
1552029682187.5000000000,17,-64.9000000000,A01BBE,5,1552029657000
1552029682203.1201171875,17,-63.2300000000,A01BBE,5,1552029657000
1552029682218.7500000000,17,-59.8300000000,A01BBE,5,1552029657000
1552029682234.3798828125,17,-54.6100000000,A01BBE,5,1552029657000
1552029682250.0000000000,17,-47.6000000000,A01BBE,5,1552029657000
1552029682265.6201171875,17,-39.1100000000,A01BBE,5,1552029657000
1552029682281.2500000000,17,-29.3300000000,A01BBE,5,1552029657000
1552029682296.8798828125,17,-18.5900000000,A01BBE,5,1552029657000
1552029682312.5000000000,17,-7.3900000000,A01BBE,5,1552029657000
1552029682328.1201171875,17,3.7600000000,A01BBE,5,1552029657000
1552029682343.7500000000,17,14.3300000000,A01BBE,5,1552029657000
1552029682359.3798828125,17,23.8900000000,A01BBE,5,1552029657000
1552029682375.0000000000,17,32.0700000000,A01BBE,5,1552029657000
1552029682390.6201171875,17,38.6500000000,A01BBE,5,1552029657000
1552029682406.2500000000,17,43.5000000000,A01BBE,5,1552029657000
1552029682421.8798828125,17,46.6200000000,A01BBE,5,1552029657000
1552029682437.5000000000,17,48.0400000000,A01BBE,5,1552029657000
1552029682453.1201171875,17,47.8900000000,A01BBE,5,1552029657000
1552029682468.7500000000,17,46.3900000000,A01BBE,5,1552029657000
1552029682484.3798828125,17,43.7900000000,A01BBE,5,1552029657000
1552029682500.0000000000,17,40.4200000000,A01BBE,5,1552029657000
1552029682515.6201171875,17,36.5400000000,A01BBE,5,1552029657000
1552029682531.2500000000,17,32.4200000000,A01BBE,5,1552029657000
1552029682546.8798828125,17,28.2300000000,A01BBE,5,1552029657000
1552029682562.5000000000,17,24.1200000000,A01BBE,5,1552029657000
1552029682578.1201171875,17,20.1300000000,A01BBE,5,1552029657000
1552029682593.7500000000,17,16.3200000000,A01BBE,5,1552029657000
1552029682609.3798828125,17,12.6900000000,A01BBE,5,1552029657000
1552029682625.0000000000,17,9.3000000000,A01BBE,5,1552029657000
1552029682640.6201171875,17,6.2200000000,A01BBE,5,1552029657000
1552029682656.2500000000,17,3.5100000000,A01BBE,5,1552029657000
1552029682671.8798828125,17,1.2200000000,A01BBE,5,1552029657000
1552029682687.5000000000,17,-0.6900000000,A01BBE,5,1552029657000
1552029682703.1201171875,17,-2.3400000000,A01BBE,5,1552029657000
1552029682718.7500000000,17,-3.8800000000,A01BBE,5,1552029657000
1552029682734.3798828125,17,-5.4500000000,A01BBE,5,1552029657000
1552029682750.0000000000,17,-7.1400000000,A01BBE,5,1552029657000
1552029682765.6201171875,17,-8.9100000000,A01BBE,5,1552029657000
1552029682781.2500000000,17,-10.6200000000,A01BBE,5,1552029657000
1552029682796.8798828125,17,-12.0700000000,A01BBE,5,1552029657000
1552029682812.5000000000,17,-13.1100000000,A01BBE,5,1552029657000
1552029682828.1201171875,17,-13.7600000000,A01BBE,5,1552029657000
1552029682843.7500000000,17,-14.2700000000,A01BBE,5,1552029657000
1552029682859.3798828125,17,-14.8400000000,A01BBE,5,1552029657000
1552029682875.0000000000,17,-15.7700000000,A01BBE,5,1552029657000
1552029682890.6201171875,17,-17.2000000000,A01BBE,5,1552029657000
1552029682906.2500000000,17,-19.0000000000,A01BBE,5,1552029657000
1552029682921.8798828125,17,-20.7700000000,A01BBE,5,1552029657000
1552029682937.5000000000,17,-22.0300000000,A01BBE,5,1552029657000
1552029682953.1201171875,17,-22.4200000000,A01BBE,5,1552029657000
1552029682968.7500000000,17,-21.9000000000,A01BBE,5,1552029657000
1552029682984.3798828125,17,-20.8100000000,A01BBE,5,1552029657000
1552029683000.0000000000,17,-19.5900000000,A01BBE,5,1552029657000
1552029683015.6201171875,17,-18.7400000000,A01BBE,5,1552029657000
1552029683031.2500000000,17,-18.5100000000,A01BBE,5,1552029657000
1552029683046.8798828125,17,-18.7400000000,A01BBE,5,1552029657000
1552029683062.5000000000,17,-18.8100000000,A01BBE,5,1552029657000
1552029683078.1201171875,17,-17.9700000000,A01BBE,5,1552029657000
1552029683093.7500000000,17,-15.5900000000,A01BBE,5,1552029657000
1552029683109.3798828125,17,-11.5300000000,A01BBE,5,1552029657000
1552029683125.0000000000,17,-6.2000000000,A01BBE,5,1552029657000
1552029683140.6201171875,17,-0.0400000000,A01BBE,5,1552029657000
1552029683156.2500000000,17,6.4600000000,A01BBE,5,1552029657000
1552029683171.8798828125,17,13.0500000000,A01BBE,5,1552029657000
1552029683187.5000000000,17,19.9400000000,A01BBE,5,1552029657000
1552029683203.1201171875,17,27.8400000000,A01BBE,5,1552029657000
1552029683218.7500000000,17,37.7800000000,A01BBE,5,1552029657000
1552029683234.3798828125,17,51.1800000000,A01BBE,5,1552029657000
1552029683250.0000000000,17,69.8900000000,A01BBE,5,1552029657000
1552029683265.6201171875,17,93.7700000000,A01BBE,5,1552029657000
1552029683281.2500000000,17,122.7500000000,A01BBE,5,1552029657000
1552029683296.8798828125,17,155.2800000000,A01BBE,5,1552029657000
1552029683312.5000000000,17,187.7400000000,A01BBE,5,1552029657000
1552029683328.1201171875,17,214.8000000000,A01BBE,5,1552029657000
1552029683343.7500000000,17,230.8600000000,A01BBE,5,1552029657000
1552029683359.3798828125,17,232.0700000000,A01BBE,5,1552029657000
1552029683375.0000000000,17,217.8200000000,A01BBE,5,1552029657000
1552029683390.6201171875,17,190.8700000000,A01BBE,5,1552029657000
1552029683406.2500000000,17,156.1300000000,A01BBE,5,1552029657000
1552029683421.8798828125,17,119.0400000000,A01BBE,5,1552029657000
1552029683437.5000000000,17,83.6500000000,A01BBE,5,1552029657000
1552029683453.1201171875,17,52.1400000000,A01BBE,5,1552029657000
1552029683468.7500000000,17,25.4000000000,A01BBE,5,1552029657000
1552029683484.3798828125,17,3.8300000000,A01BBE,5,1552029657000
1552029683500.0000000000,17,-12.1700000000,A01BBE,5,1552029657000
1552029683515.6201171875,17,-22.5200000000,A01BBE,5,1552029657000
1552029683531.2500000000,17,-27.9200000000,A01BBE,5,1552029657000
1552029683546.8798828125,17,-30.1400000000,A01BBE,5,1552029657000
1552029683562.5000000000,17,-31.2600000000,A01BBE,5,1552029657000
1552029683578.1201171875,17,-33.1600000000,A01BBE,5,1552029657000
1552029683593.7500000000,17,-36.7200000000,A01BBE,5,1552029657000
1552029683609.3798828125,17,-41.6300000000,A01BBE,5,1552029657000
1552029683625.0000000000,17,-46.8400000000,A01BBE,5,1552029657000
1552029683640.6201171875,17,-51.1500000000,A01BBE,5,1552029657000
1552029683656.2500000000,17,-53.8100000000,A01BBE,5,1552029657000
1552029683671.8798828125,17,-54.8100000000,A01BBE,5,1552029657000
1552029683687.5000000000,17,-54.7700000000,A01BBE,5,1552029657000
1552029683703.1201171875,17,-54.4000000000,A01BBE,5,1552029657000
1552029683718.7500000000,17,-54.3800000000,A01BBE,5,1552029657000
1552029683734.3798828125,17,-55.0600000000,A01BBE,5,1552029657000
1552029683750.0000000000,17,-56.3100000000,A01BBE,5,1552029657000
1552029683765.6201171875,17,-57.6000000000,A01BBE,5,1552029657000
1552029683781.2500000000,17,-58.2800000000,A01BBE,5,1552029657000
1552029683796.8798828125,17,-57.8300000000,A01BBE,5,1552029657000
1552029683812.5000000000,17,-56.1100000000,A01BBE,5,1552029657000
1552029683828.1201171875,17,-53.3000000000,A01BBE,5,1552029657000
1552029683843.7500000000,17,-49.6600000000,A01BBE,5,1552029657000
1552029683859.3798828125,17,-45.3400000000,A01BBE,5,1552029657000
1552029683875.0000000000,17,-40.3000000000,A01BBE,5,1552029657000
1552029683890.6201171875,17,-34.3900000000,A01BBE,5,1552029657000
1552029683906.2500000000,17,-27.6000000000,A01BBE,5,1552029657000
1552029683921.8798828125,17,-20.1800000000,A01BBE,5,1552029657000
1552029683937.5000000000,17,-12.7400000000,A01BBE,5,1552029657000
1552029683953.1201171875,17,-6.0000000000,A01BBE,5,1552029657000
1552029683968.7500000000,17,-0.5700000000,A01BBE,5,1552029657000
1552029683984.3798828125,17,3.3700000000,A01BBE,5,1552029657000
1552029684000.0000000000,17,5.9900000000,A01BBE,5,1552029657000
1552029684015.6201171875,17,7.6700000000,A01BBE,5,1552029657000
1552029684031.2500000000,17,8.8700000000,A01BBE,5,1552029657000
1552029684046.8798828125,17,9.9000000000,A01BBE,5,1552029657000
1552029684062.5000000000,17,10.8500000000,A01BBE,5,1552029657000
1552029684078.1201171875,17,11.6500000000,A01BBE,5,1552029657000
1552029684093.7500000000,17,12.1600000000,A01BBE,5,1552029657000
1552029684109.3798828125,17,12.2500000000,A01BBE,5,1552029657000
1552029684125.0000000000,17,11.9300000000,A01BBE,5,1552029657000
1552029684140.6201171875,17,11.3700000000,A01BBE,5,1552029657000
1552029684156.2500000000,17,10.8600000000,A01BBE,5,1552029657000
1552029684171.8798828125,17,10.6400000000,A01BBE,5,1552029657000
1552029684187.5000000000,17,10.8500000000,A01BBE,5,1552029657000
1552029684203.1201171875,17,11.3600000000,A01BBE,5,1552029657000
1552029684218.7500000000,17,11.9100000000,A01BBE,5,1552029657000
1552029684234.3798828125,17,12.2000000000,A01BBE,5,1552029657000
1552029684250.0000000000,17,12.1200000000,A01BBE,5,1552029657000
1552029684265.6201171875,17,11.7700000000,A01BBE,5,1552029657000
1552029684281.2500000000,17,11.4200000000,A01BBE,5,1552029657000
1552029684296.8798828125,17,11.3300000000,A01BBE,5,1552029657000
1552029684312.5000000000,17,11.5700000000,A01BBE,5,1552029657000
1552029684328.1201171875,17,12.0000000000,A01BBE,5,1552029657000
1552029684343.7500000000,17,12.3300000000,A01BBE,5,1552029657000
1552029684359.3798828125,17,12.3100000000,A01BBE,5,1552029657000
1552029684375.0000000000,17,11.8500000000,A01BBE,5,1552029657000
1552029684390.6201171875,17,11.0800000000,A01BBE,5,1552029657000
1552029684406.2500000000,17,10.2200000000,A01BBE,5,1552029657000
1552029684421.8798828125,17,9.4900000000,A01BBE,5,1552029657000
1552029684437.5000000000,17,8.9700000000,A01BBE,5,1552029657000
1552029684453.1201171875,17,8.6100000000,A01BBE,5,1552029657000
1552029684468.7500000000,17,8.3300000000,A01BBE,5,1552029657000
1552029684484.3798828125,17,8.0600000000,A01BBE,5,1552029657000
1552029684500.0000000000,17,7.7700000000,A01BBE,5,1552029657000
1552029684515.6201171875,17,7.5200000000,A01BBE,5,1552029657000
1552029684531.2500000000,17,7.2700000000,A01BBE,5,1552029657000
1552029684546.8798828125,17,6.9500000000,A01BBE,5,1552029657000
1552029684562.5000000000,17,6.4700000000,A01BBE,5,1552029657000
1552029684578.1201171875,17,5.7800000000,A01BBE,5,1552029657000
1552029684593.7500000000,17,4.9900000000,A01BBE,5,1552029657000
1552029684609.3798828125,17,4.3500000000,A01BBE,5,1552029657000
1552029684625.0000000000,17,4.1500000000,A01BBE,5,1552029657000
1552029684640.6201171875,17,4.6400000000,A01BBE,5,1552029657000
1552029684656.2500000000,17,5.8400000000,A01BBE,5,1552029657000
1552029684671.8798828125,17,7.5300000000,A01BBE,5,1552029657000
1552029684687.5000000000,17,9.2900000000,A01BBE,5,1552029657000
1552029684703.1201171875,17,10.6000000000,A01BBE,5,1552029657000
1552029684718.7500000000,17,11.0400000000,A01BBE,5,1552029657000
1552029684734.3798828125,17,10.3500000000,A01BBE,5,1552029657000
1552029684750.0000000000,17,8.5900000000,A01BBE,5,1552029657000
1552029684765.6201171875,17,6.1200000000,A01BBE,5,1552029657000
1552029684781.2500000000,17,3.4700000000,A01BBE,5,1552029657000
1552029684796.8798828125,17,1.1400000000,A01BBE,5,1552029657000
1552029684812.5000000000,17,-0.5400000000,A01BBE,5,1552029657000
1552029684828.1201171875,17,-1.4900000000,A01BBE,5,1552029657000
1552029684843.7500000000,17,-1.9700000000,A01BBE,5,1552029657000
1552029684859.3798828125,17,-2.3500000000,A01BBE,5,1552029657000
1552029684875.0000000000,17,-3.0600000000,A01BBE,5,1552029657000
1552029684890.6201171875,17,-4.4000000000,A01BBE,5,1552029657000
1552029684906.2500000000,17,-6.5200000000,A01BBE,5,1552029657000
1552029684921.8798828125,17,-9.3500000000,A01BBE,5,1552029657000
1552029684937.5000000000,17,-12.5900000000,A01BBE,5,1552029657000
1552029684953.1201171875,17,-15.8000000000,A01BBE,5,1552029657000
1552029684968.7500000000,17,-18.4900000000,A01BBE,5,1552029657000
1552029684984.3798828125,17,-20.2700000000,A01BBE,5,1552029657000
1552029685000.0000000000,17,-21.0900000000,A01BBE,5,1552029657000
1552029685015.6201171875,17,-21.4000000000,A01BBE,5,1552029657000
1552029685031.2500000000,17,-22.0000000000,A01BBE,5,1552029657000
1552029685046.8798828125,17,-23.7800000000,A01BBE,5,1552029657000
1552029685062.5000000000,17,-27.2900000000,A01BBE,5,1552029657000
1552029685078.1201171875,17,-32.4200000000,A01BBE,5,1552029657000
1552029685093.7500000000,17,-38.5100000000,A01BBE,5,1552029657000
1552029685109.3798828125,17,-44.6600000000,A01BBE,5,1552029657000
1552029685125.0000000000,17,-50.2800000000,A01BBE,5,1552029657000
1552029685140.6201171875,17,-55.3400000000,A01BBE,5,1552029657000
1552029685156.2500000000,17,-60.2700000000,A01BBE,5,1552029657000
1552029685171.8798828125,17,-65.4800000000,A01BBE,5,1552029657000
1552029685187.5000000000,17,-70.9200000000,A01BBE,5,1552029657000
1552029685203.1201171875,17,-75.8400000000,A01BBE,5,1552029657000
1552029685218.7500000000,17,-79.1100000000,A01BBE,5,1552029657000
1552029685234.3798828125,17,-79.8000000000,A01BBE,5,1552029657000
1552029685250.0000000000,17,-77.5700000000,A01BBE,5,1552029657000
1552029685265.6201171875,17,-72.9300000000,A01BBE,5,1552029657000
1552029685281.2500000000,17,-66.9100000000,A01BBE,5,1552029657000
1552029685296.8798828125,17,-60.5600000000,A01BBE,5,1552029657000
1552029685312.5000000000,17,-54.5400000000,A01BBE,5,1552029657000
1552029685328.1201171875,17,-48.9200000000,A01BBE,5,1552029657000
1552029685343.7500000000,17,-43.3700000000,A01BBE,5,1552029657000
1552029685359.3798828125,17,-37.4000000000,A01BBE,5,1552029657000
1552029685375.0000000000,17,-30.7000000000,A01BBE,5,1552029657000
1552029685390.6201171875,17,-23.1800000000,A01BBE,5,1552029657000
1552029685406.2500000000,17,-15.0900000000,A01BBE,5,1552029657000
1552029685421.8798828125,17,-6.8600000000,A01BBE,5,1552029657000
1552029685437.5000000000,17,0.9600000000,A01BBE,5,1552029657000
1552029685453.1201171875,17,7.8400000000,A01BBE,5,1552029657000
1552029685468.7500000000,17,13.4400000000,A01BBE,5,1552029657000
1552029685484.3798828125,17,17.7100000000,A01BBE,5,1552029657000
1552029685500.0000000000,17,20.8800000000,A01BBE,5,1552029657000
1552029685515.6201171875,17,23.3000000000,A01BBE,5,1552029657000
1552029685531.2500000000,17,25.3400000000,A01BBE,5,1552029657000
1552029685546.8798828125,17,27.1500000000,A01BBE,5,1552029657000
1552029685562.5000000000,17,28.6400000000,A01BBE,5,1552029657000
1552029685578.1201171875,17,29.6300000000,A01BBE,5,1552029657000
1552029685593.7500000000,17,29.9600000000,A01BBE,5,1552029657000
1552029685609.3798828125,17,29.6800000000,A01BBE,5,1552029657000
1552029685625.0000000000,17,29.0400000000,A01BBE,5,1552029657000
1552029685640.6201171875,17,28.3500000000,A01BBE,5,1552029657000
1552029685656.2500000000,17,27.8100000000,A01BBE,5,1552029657000
1552029685671.8798828125,17,27.3500000000,A01BBE,5,1552029657000
1552029685687.5000000000,17,26.7300000000,A01BBE,5,1552029657000
1552029685703.1201171875,17,25.6300000000,A01BBE,5,1552029657000
1552029685718.7500000000,17,23.9400000000,A01BBE,5,1552029657000
1552029685734.3798828125,17,21.8300000000,A01BBE,5,1552029657000
1552029685750.0000000000,17,19.6400000000,A01BBE,5,1552029657000
1552029685765.6201171875,17,17.8100000000,A01BBE,5,1552029657000
1552029685781.2500000000,17,16.5800000000,A01BBE,5,1552029657000
