timestamp,pid,value,device_serial,device_number,entry_time
1552624192000.0000000000,24,0E-10,A01525,1,1552624192000
1552624192015.6201171875,24,0E-10,A01525,1,1552624192000
1552624192031.2500000000,24,0E-10,A01525,1,1552624192000
1552624192046.8798828125,24,0E-10,A01525,1,1552624192000
1552624192062.5000000000,24,0E-10,A01525,1,1552624192000
1552624192078.1201171875,24,0E-10,A01525,1,1552624192000
1552624192093.7500000000,24,0E-10,A01525,1,1552624192000
1552624192109.3798828125,24,0E-10,A01525,1,1552624192000
1552624192125.0000000000,24,0E-10,A01525,1,1552624192000
1552624192140.6201171875,24,0E-10,A01525,1,1552624192000
1552624192156.2500000000,24,0E-10,A01525,1,1552624192000
1552624192171.8798828125,24,0.0100000000,A01525,1,1552624192000
1552624192187.5000000000,24,0.0100000000,A01525,1,1552624192000
1552624192203.1201171875,24,0E-10,A01525,1,1552624192000
1552624192218.7500000000,24,-0.0300000000,A01525,1,1552624192000
1552624192234.3798828125,24,-0.0500000000,A01525,1,1552624192000
1552624192250.0000000000,24,-0.0500000000,A01525,1,1552624192000
1552624192265.6201171875,24,0E-10,A01525,1,1552624192000
1552624192281.2500000000,24,0.1300000000,A01525,1,1552624192000
1552624192296.8798828125,24,0.3600000000,A01525,1,1552624192000
1552624192312.5000000000,24,0.6600000000,A01525,1,1552624192000
1552624192328.1201171875,24,1.0100000000,A01525,1,1552624192000
1552624192343.7500000000,24,1.3700000000,A01525,1,1552624192000
1552624192359.3798828125,24,1.7200000000,A01525,1,1552624192000
1552624192375.0000000000,24,2.0600000000,A01525,1,1552624192000
1552624192390.6201171875,24,2.4000000000,A01525,1,1552624192000
1552624192406.2500000000,24,2.7900000000,A01525,1,1552624192000
1552624192421.8798828125,24,3.2400000000,A01525,1,1552624192000
1552624192437.5000000000,24,3.8000000000,A01525,1,1552624192000
1552624192453.1201171875,24,4.4200000000,A01525,1,1552624192000
1552624192468.7500000000,24,5.0600000000,A01525,1,1552624192000
1552624192484.3798828125,24,5.6600000000,A01525,1,1552624192000
1552624192500.0000000000,24,6.2000000000,A01525,1,1552624192000
1552624192515.6201171875,24,6.6800000000,A01525,1,1552624192000
1552624192531.2500000000,24,7.1500000000,A01525,1,1552624192000
1552624192546.8798828125,24,7.6800000000,A01525,1,1552624192000
1552624192562.5000000000,24,8.3100000000,A01525,1,1552624192000
1552624192578.1201171875,24,9.1400000000,A01525,1,1552624192000
1552624192593.7500000000,24,10.0900000000,A01525,1,1552624192000
1552624192609.3798828125,24,11.0400000000,A01525,1,1552624192000
1552624192625.0000000000,24,11.8800000000,A01525,1,1552624192000
1552624192640.6201171875,24,12.5600000000,A01525,1,1552624192000
1552624192656.2500000000,24,13.1400000000,A01525,1,1552624192000
1552624192671.8798828125,24,13.7600000000,A01525,1,1552624192000
1552624192687.5000000000,24,14.6500000000,A01525,1,1552624192000
1552624192703.1201171875,24,15.9600000000,A01525,1,1552624192000
1552624192718.7500000000,24,17.9100000000,A01525,1,1552624192000
1552624192734.3798828125,24,20.3200000000,A01525,1,1552624192000
1552624192750.0000000000,24,22.9000000000,A01525,1,1552624192000
1552624192765.6201171875,24,25.3800000000,A01525,1,1552624192000
1552624192781.2500000000,24,27.5800000000,A01525,1,1552624192000
1552624192796.8798828125,24,29.5700000000,A01525,1,1552624192000
1552624192812.5000000000,24,31.6800000000,A01525,1,1552624192000
1552624192828.1201171875,24,34.3200000000,A01525,1,1552624192000
1552624192843.7500000000,24,37.8100000000,A01525,1,1552624192000
1552624192859.3798828125,24,42.5400000000,A01525,1,1552624192000
1552624192875.0000000000,24,48.1500000000,A01525,1,1552624192000
1552624192890.6201171875,24,54.1000000000,A01525,1,1552624192000
1552624192906.2500000000,24,59.8300000000,A01525,1,1552624192000
1552624192921.8798828125,24,64.9700000000,A01525,1,1552624192000
1552624192937.5000000000,24,69.5800000000,A01525,1,1552624192000
1552624192953.1201171875,24,74.1400000000,A01525,1,1552624192000
1552624192968.7500000000,24,79.3400000000,A01525,1,1552624192000
1552624192984.3798828125,24,85.7100000000,A01525,1,1552624192000
1552624193000.0000000000,24,93.7600000000,A01525,1,1552624192000
1552624193015.6201171875,24,103.0000000000,A01525,1,1552624192000
1552624193031.2500000000,24,112.6200000000,A01525,1,1552624192000
1552624193046.8798828125,24,121.7300000000,A01525,1,1552624192000
1552624193062.5000000000,24,129.7700000000,A01525,1,1552624192000
1552624193078.1201171875,24,136.7500000000,A01525,1,1552624192000
1552624193093.7500000000,24,143.3000000000,A01525,1,1552624192000
1552624193109.3798828125,24,150.7500000000,A01525,1,1552624192000
1552624193125.0000000000,24,157.7700000000,A01525,1,1552624192000
1552624193140.6201171875,24,166.6400000000,A01525,1,1552624192000
1552624193156.2500000000,24,177.9500000000,A01525,1,1552624192000
1552624193171.8798828125,24,191.7900000000,A01525,1,1552624192000
1552624193187.5000000000,24,206.9700000000,A01525,1,1552624192000
1552624193203.1201171875,24,220.5700000000,A01525,1,1552624192000
1552624193218.7500000000,24,228.2500000000,A01525,1,1552624192000
1552624193234.3798828125,24,225.3600000000,A01525,1,1552624192000
1552624193250.0000000000,24,208.5300000000,A01525,1,1552624192000
1552624193265.6201171875,24,176.8700000000,A01525,1,1552624192000
1552624193281.2500000000,24,132.7600000000,A01525,1,1552624192000
1552624193296.8798828125,24,80.0500000000,A01525,1,1552624192000
1552624193312.5000000000,24,23.0700000000,A01525,1,1552624192000
1552624193328.1201171875,24,-34.9400000000,A01525,1,1552624192000
1552624193343.7500000000,24,-92.4400000000,A01525,1,1552624192000
1552624193359.3798828125,24,-149.1600000000,A01525,1,1552624192000
1552624193375.0000000000,24,-205.2300000000,A01525,1,1552624192000
1552624193390.6201171875,24,-260.3700000000,A01525,1,1552624192000
1552624193406.2500000000,24,-313.7400000000,A01525,1,1552624192000
1552624193421.8798828125,24,-363.8700000000,A01525,1,1552624192000
1552624193437.5000000000,24,-409.8300000000,A01525,1,1552624192000
1552624193453.1201171875,24,-450.9100000000,A01525,1,1552624192000
1552624193468.7500000000,24,-486.5000000000,A01525,1,1552624192000
1552624193484.3798828125,24,-515.7400000000,A01525,1,1552624192000
1552624193500.0000000000,24,-537.2300000000,A01525,1,1552624192000
1552624193515.6201171875,24,-549.2200000000,A01525,1,1552624192000
1552624193531.2500000000,24,-549.9600000000,A01525,1,1552624192000
1552624193546.8798828125,24,-538.3700000000,A01525,1,1552624192000
1552624193562.5000000000,24,-514.2100000000,A01525,1,1552624192000
1552624193578.1201171875,24,-478.6700000000,A01525,1,1552624192000
1552624193593.7500000000,24,-433.8800000000,A01525,1,1552624192000
1552624193609.3798828125,24,-382.4500000000,A01525,1,1552624192000
1552624193625.0000000000,24,-327.0200000000,A01525,1,1552624192000
1552624193640.6201171875,24,-269.8400000000,A01525,1,1552624192000
1552624193656.2500000000,24,-212.6300000000,A01525,1,1552624192000
1552624193671.8798828125,24,-156.6600000000,A01525,1,1552624192000
1552624193687.5000000000,24,-102.9500000000,A01525,1,1552624192000
1552624193703.1201171875,24,-52.3700000000,A01525,1,1552624192000
1552624193718.7500000000,24,-5.9000000000,A01525,1,1552624192000
1552624193734.3798828125,24,35.5800000000,A01525,1,1552624192000
1552624193750.0000000000,24,71.4300000000,A01525,1,1552624192000
1552624193765.6201171875,24,101.3500000000,A01525,1,1552624192000
1552624193781.2500000000,24,125.5000000000,A01525,1,1552624192000
1552624193796.8798828125,24,144.3800000000,A01525,1,1552624192000
1552624193812.5000000000,24,158.6900000000,A01525,1,1552624192000
1552624193828.1201171875,24,169.1500000000,A01525,1,1552624192000
1552624193843.7500000000,24,176.3700000000,A01525,1,1552624192000
1552624193859.3798828125,24,180.7500000000,A01525,1,1552624192000
1552624193875.0000000000,24,182.5700000000,A01525,1,1552624192000
1552624193890.6201171875,24,182.0700000000,A01525,1,1552624192000
1552624193906.2500000000,24,179.5100000000,A01525,1,1552624192000
1552624193921.8798828125,24,175.2300000000,A01525,1,1552624192000
1552624193937.5000000000,24,169.6500000000,A01525,1,1552624192000
1552624193953.1201171875,24,163.1800000000,A01525,1,1552624192000
1552624193968.7500000000,24,156.1500000000,A01525,1,1552624192000
1552624193984.3798828125,24,148.8100000000,A01525,1,1552624192000
1552624194000.0000000000,24,141.3000000000,A01525,1,1552624192000
1552624194015.6201171875,24,133.6900000000,A01525,1,1552624192000
1552624194031.2500000000,24,126.0200000000,A01525,1,1552624192000
1552624194046.8798828125,24,118.3300000000,A01525,1,1552624192000
1552624194062.5000000000,24,110.6900000000,A01525,1,1552624192000
1552624194078.1201171875,24,103.1600000000,A01525,1,1552624192000
1552624194093.7500000000,24,95.8000000000,A01525,1,1552624192000
1552624194109.3798828125,24,88.6800000000,A01525,1,1552624192000
1552624194125.0000000000,24,81.8300000000,A01525,1,1552624192000
1552624194140.6201171875,24,75.2500000000,A01525,1,1552624192000
1552624194156.2500000000,24,68.9500000000,A01525,1,1552624192000
1552624194171.8798828125,24,62.9500000000,A01525,1,1552624192000
1552624194187.5000000000,24,57.2500000000,A01525,1,1552624192000
1552624194203.1201171875,24,51.8600000000,A01525,1,1552624192000
1552624194218.7500000000,24,46.7800000000,A01525,1,1552624192000
1552624194234.3798828125,24,42.0300000000,A01525,1,1552624192000
1552624194250.0000000000,24,37.5900000000,A01525,1,1552624192000
1552624194265.6201171875,24,33.4500000000,A01525,1,1552624192000
1552624194281.2500000000,24,29.6100000000,A01525,1,1552624192000
1552624194296.8798828125,24,26.0700000000,A01525,1,1552624192000
1552624194312.5000000000,24,22.8100000000,A01525,1,1552624192000
1552624194328.1201171875,24,19.8300000000,A01525,1,1552624192000
1552624194343.7500000000,24,17.1100000000,A01525,1,1552624192000
1552624194359.3798828125,24,14.6700000000,A01525,1,1552624192000
1552624194375.0000000000,24,12.4800000000,A01525,1,1552624192000
1552624194390.6201171875,24,10.5400000000,A01525,1,1552624192000
1552624194406.2500000000,24,8.8300000000,A01525,1,1552624192000
1552624194421.8798828125,24,7.3500000000,A01525,1,1552624192000
1552624194437.5000000000,24,6.0700000000,A01525,1,1552624192000
1552624194453.1201171875,24,4.9700000000,A01525,1,1552624192000
1552624194468.7500000000,24,4.0500000000,A01525,1,1552624192000
1552624194484.3798828125,24,3.2700000000,A01525,1,1552624192000
1552624194500.0000000000,24,2.6200000000,A01525,1,1552624192000
1552624194515.6201171875,24,2.0900000000,A01525,1,1552624192000
1552624194531.2500000000,24,1.6500000000,A01525,1,1552624192000
1552624194546.8798828125,24,1.3000000000,A01525,1,1552624192000
1552624194562.5000000000,24,1.0100000000,A01525,1,1552624192000
1552624194578.1201171875,24,0.7900000000,A01525,1,1552624192000
1552624194593.7500000000,24,0.6100000000,A01525,1,1552624192000
1552624194609.3798828125,24,0.4700000000,A01525,1,1552624192000
1552624194625.0000000000,24,0.3700000000,A01525,1,1552624192000
1552624194640.6201171875,24,0.2800000000,A01525,1,1552624192000
1552624194656.2500000000,24,0.2200000000,A01525,1,1552624192000
1552624194671.8798828125,24,0.1800000000,A01525,1,1552624192000
1552624194687.5000000000,24,0.1500000000,A01525,1,1552624192000
1552624194703.1201171875,24,0.1300000000,A01525,1,1552624192000
1552624194718.7500000000,24,0.1300000000,A01525,1,1552624192000
1552624194734.3798828125,24,0.1300000000,A01525,1,1552624192000
1552624194750.0000000000,24,0.1400000000,A01525,1,1552624192000
1552624194765.6201171875,24,0.1600000000,A01525,1,1552624192000
1552624194781.2500000000,24,0.1900000000,A01525,1,1552624192000
1552624194796.8798828125,24,0.2200000000,A01525,1,1552624192000
1552624194812.5000000000,24,0.2600000000,A01525,1,1552624192000
1552624194828.1201171875,24,0.3000000000,A01525,1,1552624192000
1552624194843.7500000000,24,0.3400000000,A01525,1,1552624192000
1552624194859.3798828125,24,0.3800000000,A01525,1,1552624192000
1552624194875.0000000000,24,0.4300000000,A01525,1,1552624192000
1552624194890.6201171875,24,0.4800000000,A01525,1,1552624192000
1552624194906.2500000000,24,0.5300000000,A01525,1,1552624192000
1552624194921.8798828125,24,0.5700000000,A01525,1,1552624192000
1552624194937.5000000000,24,0.6300000000,A01525,1,1552624192000
1552624194953.1201171875,24,0.6800000000,A01525,1,1552624192000
1552624194968.7500000000,24,0.7300000000,A01525,1,1552624192000
1552624194984.3798828125,24,0.7900000000,A01525,1,1552624192000
1552624195000.0000000000,24,0.8600000000,A01525,1,1552624192000
1552624195015.6201171875,24,0.9300000000,A01525,1,1552624192000
1552624195031.2500000000,24,1.0100000000,A01525,1,1552624192000
1552624195046.8798828125,24,1.1000000000,A01525,1,1552624192000
1552624195062.5000000000,24,1.2000000000,A01525,1,1552624192000
1552624195078.1201171875,24,1.3200000000,A01525,1,1552624192000
1552624195093.7500000000,24,1.4400000000,A01525,1,1552624192000
1552624195109.3798828125,24,1.5900000000,A01525,1,1552624192000
1552624195125.0000000000,24,1.7500000000,A01525,1,1552624192000
1552624195140.6201171875,24,1.9200000000,A01525,1,1552624192000
1552624195156.2500000000,24,2.1300000000,A01525,1,1552624192000
1552624195171.8798828125,24,2.3500000000,A01525,1,1552624192000
1552624195187.5000000000,24,2.5900000000,A01525,1,1552624192000
1552624195203.1201171875,24,2.8600000000,A01525,1,1552624192000
1552624195218.7500000000,24,3.1600000000,A01525,1,1552624192000
1552624195234.3798828125,24,3.4900000000,A01525,1,1552624192000
1552624195250.0000000000,24,3.8500000000,A01525,1,1552624192000
1552624195265.6201171875,24,4.2400000000,A01525,1,1552624192000
1552624195281.2500000000,24,4.6700000000,A01525,1,1552624192000
1552624195296.8798828125,24,5.1300000000,A01525,1,1552624192000
1552624195312.5000000000,24,5.6300000000,A01525,1,1552624192000
1552624195328.1201171875,24,6.1700000000,A01525,1,1552624192000
1552624195343.7500000000,24,6.7500000000,A01525,1,1552624192000
1552624195359.3798828125,24,7.3600000000,A01525,1,1552624192000
1552624195375.0000000000,24,8.0300000000,A01525,1,1552624192000
1552624195390.6201171875,24,8.7400000000,A01525,1,1552624192000
1552624195406.2500000000,24,9.4900000000,A01525,1,1552624192000
1552624195421.8798828125,24,10.2900000000,A01525,1,1552624192000
1552624195437.5000000000,24,11.1300000000,A01525,1,1552624192000
1552624195453.1201171875,24,12.0200000000,A01525,1,1552624192000
1552624195468.7500000000,24,12.9500000000,A01525,1,1552624192000
1552624195484.3798828125,24,13.9400000000,A01525,1,1552624192000
1552624195500.0000000000,24,15.0000000000,A01525,1,1552624192000
1552624195515.6201171875,24,16.1200000000,A01525,1,1552624192000
1552624195531.2500000000,24,17.3200000000,A01525,1,1552624192000
1552624195546.8798828125,24,18.5500000000,A01525,1,1552624192000
1552624195562.5000000000,24,19.8200000000,A01525,1,1552624192000
1552624195578.1201171875,24,21.0700000000,A01525,1,1552624192000
1552624195593.7500000000,24,22.2900000000,A01525,1,1552624192000
1552624195609.3798828125,24,23.4100000000,A01525,1,1552624192000
1552624195625.0000000000,24,24.3900000000,A01525,1,1552624192000
1552624195640.6201171875,24,25.1100000000,A01525,1,1552624192000
1552624195656.2500000000,24,25.4300000000,A01525,1,1552624192000
1552624195671.8798828125,24,25.2100000000,A01525,1,1552624192000
1552624195687.5000000000,24,24.2700000000,A01525,1,1552624192000
1552624195703.1201171875,24,22.4900000000,A01525,1,1552624192000
1552624195718.7500000000,24,19.8100000000,A01525,1,1552624192000
1552624195734.3798828125,24,16.2600000000,A01525,1,1552624192000
1552624195750.0000000000,24,11.9400000000,A01525,1,1552624192000
1552624195765.6201171875,24,7.0600000000,A01525,1,1552624192000
1552624195781.2500000000,24,1.8800000000,A01525,1,1552624192000
1552624195796.8798828125,24,-3.3300000000,A01525,1,1552624192000
1552624195812.5000000000,24,-8.3300000000,A01525,1,1552624192000
1552624195828.1201171875,24,-12.9100000000,A01525,1,1552624192000
1552624195843.7500000000,24,-16.9100000000,A01525,1,1552624192000
1552624195859.3798828125,24,-20.1800000000,A01525,1,1552624192000
1552624195875.0000000000,24,-22.6200000000,A01525,1,1552624192000
1552624195890.6201171875,24,-24.1600000000,A01525,1,1552624192000
1552624195906.2500000000,24,-24.7600000000,A01525,1,1552624192000
1552624195921.8798828125,24,-24.4800000000,A01525,1,1552624192000
1552624195937.5000000000,24,-23.5000000000,A01525,1,1552624192000
1552624195953.1201171875,24,-22.1000000000,A01525,1,1552624192000
1552624195968.7500000000,24,-20.6100000000,A01525,1,1552624192000
1552624195984.3798828125,24,-19.3500000000,A01525,1,1552624192000
1552624196000.0000000000,24,-18.5300000000,A01525,1,1552624192000
1552624196015.6201171875,24,-18.1700000000,A01525,1,1552624192000
1552624196031.2500000000,24,-18.1000000000,A01525,1,1552624192000
1552624196046.8798828125,24,-18.0600000000,A01525,1,1552624192000
1552624196062.5000000000,24,-17.8300000000,A01525,1,1552624192000
1552624196078.1201171875,24,-17.3400000000,A01525,1,1552624192000
1552624196093.7500000000,24,-16.7500000000,A01525,1,1552624192000
1552624196109.3798828125,24,-16.3600000000,A01525,1,1552624192000
1552624196125.0000000000,24,-16.4500000000,A01525,1,1552624192000
1552624196140.6201171875,24,-17.1900000000,A01525,1,1552624192000
1552624196156.2500000000,24,-18.4300000000,A01525,1,1552624192000
1552624196171.8798828125,24,-19.8000000000,A01525,1,1552624192000
1552624196187.5000000000,24,-20.7600000000,A01525,1,1552624192000
1552624196203.1201171875,24,-20.9700000000,A01525,1,1552624192000
1552624196218.7500000000,24,-20.3800000000,A01525,1,1552624192000
1552624196234.3798828125,24,-19.3400000000,A01525,1,1552624192000
1552624196250.0000000000,24,-18.4500000000,A01525,1,1552624192000
1552624196265.6201171875,24,-18.3400000000,A01525,1,1552624192000
1552624196281.2500000000,24,-19.3000000000,A01525,1,1552624192000
1552624196296.8798828125,24,-21.1900000000,A01525,1,1552624192000
1552624196312.5000000000,24,-23.3600000000,A01525,1,1552624192000
1552624196328.1201171875,24,-25.1000000000,A01525,1,1552624192000
1552624196343.7500000000,24,-25.8600000000,A01525,1,1552624192000
1552624196359.3798828125,24,-25.5600000000,A01525,1,1552624192000
1552624196375.0000000000,24,-24.6300000000,A01525,1,1552624192000
1552624196390.6201171875,24,-23.7900000000,A01525,1,1552624192000
1552624196406.2500000000,24,-23.8000000000,A01525,1,1552624192000
1552624196421.8798828125,24,-25.2300000000,A01525,1,1552624192000
1552624196437.5000000000,24,-28.3600000000,A01525,1,1552624192000
1552624196453.1201171875,24,-33.1700000000,A01525,1,1552624192000
1552624196468.7500000000,24,-39.0900000000,A01525,1,1552624192000
1552624196484.3798828125,24,-45.0100000000,A01525,1,1552624192000
1552624196500.0000000000,24,-49.0600000000,A01525,1,1552624192000
1552624196515.6201171875,24,-49.0800000000,A01525,1,1552624192000
1552624196531.2500000000,24,-43.4500000000,A01525,1,1552624192000
1552624196546.8798828125,24,-32.0100000000,A01525,1,1552624192000
1552624196562.5000000000,24,-16.4500000000,A01525,1,1552624192000
1552624196578.1201171875,24,0.0800000000,A01525,1,1552624192000
1552624196593.7500000000,24,14.1500000000,A01525,1,1552624192000
1552624196609.3798828125,24,23.3800000000,A01525,1,1552624192000
1552624196625.0000000000,24,27.2600000000,A01525,1,1552624192000
1552624196640.6201171875,24,27.1000000000,A01525,1,1552624192000
1552624196656.2500000000,24,25.0500000000,A01525,1,1552624192000
1552624196671.8798828125,24,22.8300000000,A01525,1,1552624192000
1552624196687.5000000000,24,21.1400000000,A01525,1,1552624192000
1552624196703.1201171875,24,19.7200000000,A01525,1,1552624192000
1552624196718.7500000000,24,18.0200000000,A01525,1,1552624192000
1552624196734.3798828125,24,15.8900000000,A01525,1,1552624192000
1552624196750.0000000000,24,14.4100000000,A01525,1,1552624192000
1552624196765.6201171875,24,14.5500000000,A01525,1,1552624192000
1552624196781.2500000000,24,16.9900000000,A01525,1,1552624192000
1552624196796.8798828125,24,21.6500000000,A01525,1,1552624192000
1552624196812.5000000000,24,27.6900000000,A01525,1,1552624192000
1552624196828.1201171875,24,33.7500000000,A01525,1,1552624192000
1552624196843.7500000000,24,38.4800000000,A01525,1,1552624192000
1552624196859.3798828125,24,41.0300000000,A01525,1,1552624192000
1552624196875.0000000000,24,41.2400000000,A01525,1,1552624192000
1552624196890.6201171875,24,39.5600000000,A01525,1,1552624192000
1552624196906.2500000000,24,36.6700000000,A01525,1,1552624192000
1552624196921.8798828125,24,33.2500000000,A01525,1,1552624192000
1552624196937.5000000000,24,29.6700000000,A01525,1,1552624192000
1552624196953.1201171875,24,25.8900000000,A01525,1,1552624192000
1552624196968.7500000000,24,21.6200000000,A01525,1,1552624192000
1552624196984.3798828125,24,16.5600000000,A01525,1,1552624192000
1552624197000.0000000000,24,10.7000000000,A01525,1,1552624192000
1552624197015.6201171875,24,4.5700000000,A01525,1,1552624192000
1552624197031.2500000000,24,-0.9700000000,A01525,1,1552624192000
1552624197046.8798828125,24,-5.1400000000,A01525,1,1552624192000
1552624197062.5000000000,24,-7.4100000000,A01525,1,1552624192000
1552624197078.1201171875,24,-7.8200000000,A01525,1,1552624192000
1552624197093.7500000000,24,-6.7800000000,A01525,1,1552624192000
1552624197109.3798828125,24,-4.8400000000,A01525,1,1552624192000
1552624197125.0000000000,24,-2.3100000000,A01525,1,1552624192000
1552624197140.6201171875,24,0.8400000000,A01525,1,1552624192000
1552624197156.2500000000,24,4.7200000000,A01525,1,1552624192000
1552624197171.8798828125,24,9.2400000000,A01525,1,1552624192000
1552624197187.5000000000,24,13.8300000000,A01525,1,1552624192000
1552624197203.1201171875,24,17.6000000000,A01525,1,1552624192000
1552624197218.7500000000,24,19.7100000000,A01525,1,1552624192000
1552624197234.3798828125,24,19.6500000000,A01525,1,1552624192000
1552624197250.0000000000,24,17.5000000000,A01525,1,1552624192000
1552624197265.6201171875,24,13.7800000000,A01525,1,1552624192000
1552624197281.2500000000,24,9.2000000000,A01525,1,1552624192000
1552624197296.8798828125,24,4.3900000000,A01525,1,1552624192000
1552624197312.5000000000,24,-0.1100000000,A01525,1,1552624192000
1552624197328.1201171875,24,-3.8900000000,A01525,1,1552624192000
1552624197343.7500000000,24,-6.6000000000,A01525,1,1552624192000
1552624197359.3798828125,24,-8.0000000000,A01525,1,1552624192000
1552624197375.0000000000,24,-8.1600000000,A01525,1,1552624192000
1552624197390.6201171875,24,-7.4400000000,A01525,1,1552624192000
1552624197406.2500000000,24,-6.3400000000,A01525,1,1552624192000
1552624197421.8798828125,24,-5.2000000000,A01525,1,1552624192000
1552624197437.5000000000,24,-3.9400000000,A01525,1,1552624192000
1552624197453.1201171875,24,-2.0300000000,A01525,1,1552624192000
1552624197468.7500000000,24,1.1800000000,A01525,1,1552624192000
1552624197484.3798828125,24,5.9500000000,A01525,1,1552624192000
1552624197500.0000000000,24,11.8200000000,A01525,1,1552624192000
1552624197515.6201171875,24,17.6100000000,A01525,1,1552624192000
1552624197531.2500000000,24,21.8800000000,A01525,1,1552624192000
1552624197546.8798828125,24,23.5200000000,A01525,1,1552624192000
1552624197562.5000000000,24,22.1900000000,A01525,1,1552624192000
1552624197578.1201171875,24,18.4200000000,A01525,1,1552624192000
1552624197593.7500000000,24,13.2800000000,A01525,1,1552624192000
1552624197609.3798828125,24,7.8200000000,A01525,1,1552624192000
1552624197625.0000000000,24,2.6100000000,A01525,1,1552624192000
1552624197640.6201171875,24,-2.2900000000,A01525,1,1552624192000
1552624197656.2500000000,24,-7.1300000000,A01525,1,1552624192000
1552624197671.8798828125,24,-12.1900000000,A01525,1,1552624192000
1552624197687.5000000000,24,-17.3800000000,A01525,1,1552624192000
1552624197703.1201171875,24,-22.2800000000,A01525,1,1552624192000
1552624197718.7500000000,24,-26.3100000000,A01525,1,1552624192000
1552624197734.3798828125,24,-28.9700000000,A01525,1,1552624192000
1552624197750.0000000000,24,-30.0200000000,A01525,1,1552624192000
1552624197765.6201171875,24,-29.4400000000,A01525,1,1552624192000
1552624197781.2500000000,24,-27.2900000000,A01525,1,1552624192000
1552624197796.8798828125,24,-23.6100000000,A01525,1,1552624192000
1552624197812.5000000000,24,-18.4900000000,A01525,1,1552624192000
1552624197828.1201171875,24,-12.2000000000,A01525,1,1552624192000
1552624197843.7500000000,24,-5.2900000000,A01525,1,1552624192000
1552624197859.3798828125,24,1.4600000000,A01525,1,1552624192000
1552624197875.0000000000,24,7.2200000000,A01525,1,1552624192000
1552624197890.6201171875,24,11.4500000000,A01525,1,1552624192000
1552624197906.2500000000,24,14.0500000000,A01525,1,1552624192000
1552624197921.8798828125,24,15.2800000000,A01525,1,1552624192000
1552624197937.5000000000,24,15.5100000000,A01525,1,1552624192000
1552624197953.1201171875,24,14.9900000000,A01525,1,1552624192000
1552624197968.7500000000,24,13.7800000000,A01525,1,1552624192000
1552624197984.3798828125,24,11.9100000000,A01525,1,1552624192000
1552624198000.0000000000,24,9.5500000000,A01525,1,1552624192000
1552624198015.6201171875,24,7.1500000000,A01525,1,1552624192000
1552624198031.2500000000,24,5.3200000000,A01525,1,1552624192000
1552624198046.8798828125,24,4.5300000000,A01525,1,1552624192000
1552624198062.5000000000,24,4.9000000000,A01525,1,1552624192000
1552624198078.1201171875,24,6.1200000000,A01525,1,1552624192000
1552624198093.7500000000,24,7.6300000000,A01525,1,1552624192000
1552624198109.3798828125,24,8.8300000000,A01525,1,1552624192000
1552624198125.0000000000,24,9.3000000000,A01525,1,1552624192000
1552624198140.6201171875,24,8.8600000000,A01525,1,1552624192000
1552624198156.2500000000,24,7.4700000000,A01525,1,1552624192000
1552624198171.8798828125,24,5.1800000000,A01525,1,1552624192000
1552624198187.5000000000,24,2.1300000000,A01525,1,1552624192000
1552624198203.1201171875,24,-1.4600000000,A01525,1,1552624192000
1552624198218.7500000000,24,-5.2900000000,A01525,1,1552624192000
1552624198234.3798828125,24,-9.0000000000,A01525,1,1552624192000
1552624198250.0000000000,24,-12.3400000000,A01525,1,1552624192000
1552624198265.6201171875,24,-15.2000000000,A01525,1,1552624192000
1552624198281.2500000000,24,-17.5200000000,A01525,1,1552624192000
1552624198296.8798828125,24,-19.3100000000,A01525,1,1552624192000
1552624198312.5000000000,24,-20.4300000000,A01525,1,1552624192000
1552624198328.1201171875,24,-20.6400000000,A01525,1,1552624192000
1552624198343.7500000000,24,-19.7000000000,A01525,1,1552624192000
1552624198359.3798828125,24,-17.5900000000,A01525,1,1552624192000
1552624198375.0000000000,24,-14.5900000000,A01525,1,1552624192000
1552624198390.6201171875,24,-11.2300000000,A01525,1,1552624192000
1552624198406.2500000000,24,-8.1000000000,A01525,1,1552624192000
1552624198421.8798828125,24,-5.6500000000,A01525,1,1552624192000
1552624198437.5000000000,24,-3.9800000000,A01525,1,1552624192000
1552624198453.1201171875,24,-2.9500000000,A01525,1,1552624192000
1552624198468.7500000000,24,-2.2900000000,A01525,1,1552624192000
1552624198484.3798828125,24,-1.8800000000,A01525,1,1552624192000
1552624198500.0000000000,24,-1.7800000000,A01525,1,1552624192000
1552624198515.6201171875,24,-2.1800000000,A01525,1,1552624192000
1552624198531.2500000000,24,-3.2400000000,A01525,1,1552624192000
1552624198546.8798828125,24,-4.9100000000,A01525,1,1552624192000
1552624198562.5000000000,24,-6.8800000000,A01525,1,1552624192000
1552624198578.1201171875,24,-8.7600000000,A01525,1,1552624192000
1552624198593.7500000000,24,-10.2600000000,A01525,1,1552624192000
1552624198609.3798828125,24,-11.3600000000,A01525,1,1552624192000
1552624198625.0000000000,24,-12.2600000000,A01525,1,1552624192000
1552624198640.6201171875,24,-13.1900000000,A01525,1,1552624192000
1552624198656.2500000000,24,-14.2100000000,A01525,1,1552624192000
1552624198671.8798828125,24,-15.1800000000,A01525,1,1552624192000
1552624198687.5000000000,24,-15.7900000000,A01525,1,1552624192000
1552624198703.1201171875,24,-15.7800000000,A01525,1,1552624192000
1552624198718.7500000000,24,-15.0600000000,A01525,1,1552624192000
1552624198734.3798828125,24,-13.8100000000,A01525,1,1552624192000
1552624198750.0000000000,24,-12.4200000000,A01525,1,1552624192000
1552624198765.6201171875,24,-11.3900000000,A01525,1,1552624192000
1552624198781.2500000000,24,-11.0900000000,A01525,1,1552624192000
1552624198796.8798828125,24,-11.7300000000,A01525,1,1552624192000
1552624198812.5000000000,24,-13.1900000000,A01525,1,1552624192000
1552624198828.1201171875,24,-14.9300000000,A01525,1,1552624192000
1552624198843.7500000000,24,-16.0800000000,A01525,1,1552624192000
1552624198859.3798828125,24,-15.6600000000,A01525,1,1552624192000
1552624198875.0000000000,24,-12.9300000000,A01525,1,1552624192000
1552624198890.6201171875,24,-7.7300000000,A01525,1,1552624192000
1552624198906.2500000000,24,-0.5000000000,A01525,1,1552624192000
1552624198921.8798828125,24,7.8100000000,A01525,1,1552624192000
1552624198937.5000000000,24,16.1300000000,A01525,1,1552624192000
1552624198953.1201171875,24,23.5500000000,A01525,1,1552624192000
1552624198968.7500000000,24,29.4700000000,A01525,1,1552624192000
1552624198984.3798828125,24,33.5400000000,A01525,1,1552624192000
1552624199000.0000000000,24,35.5700000000,A01525,1,1552624192000
1552624199015.6201171875,24,35.5500000000,A01525,1,1552624192000
1552624199031.2500000000,24,33.7300000000,A01525,1,1552624192000
1552624199046.8798828125,24,30.7800000000,A01525,1,1552624192000
1552624199062.5000000000,24,27.5700000000,A01525,1,1552624192000
1552624199078.1201171875,24,25.0300000000,A01525,1,1552624192000
1552624199093.7500000000,24,23.6900000000,A01525,1,1552624192000
1552624199109.3798828125,24,23.5300000000,A01525,1,1552624192000
1552624199125.0000000000,24,24.0500000000,A01525,1,1552624192000
1552624199140.6201171875,24,24.6000000000,A01525,1,1552624192000
1552624199156.2500000000,24,24.7300000000,A01525,1,1552624192000
1552624199171.8798828125,24,24.3900000000,A01525,1,1552624192000
1552624199187.5000000000,24,23.8300000000,A01525,1,1552624192000
1552624199203.1201171875,24,23.3200000000,A01525,1,1552624192000
1552624199218.7500000000,24,22.9700000000,A01525,1,1552624192000
1552624199234.3798828125,24,22.5400000000,A01525,1,1552624192000
1552624199250.0000000000,24,21.6700000000,A01525,1,1552624192000
1552624199265.6201171875,24,20.0100000000,A01525,1,1552624192000
1552624199281.2500000000,24,17.4400000000,A01525,1,1552624192000
1552624199296.8798828125,24,14.1100000000,A01525,1,1552624192000
1552624199312.5000000000,24,10.3500000000,A01525,1,1552624192000
1552624199328.1201171875,24,6.4700000000,A01525,1,1552624192000
1552624199343.7500000000,24,2.6800000000,A01525,1,1552624192000
1552624199359.3798828125,24,-1.0100000000,A01525,1,1552624192000
1552624199375.0000000000,24,-4.7700000000,A01525,1,1552624192000
1552624199390.6201171875,24,-8.7000000000,A01525,1,1552624192000
1552624199406.2500000000,24,-12.7800000000,A01525,1,1552624192000
1552624199421.8798828125,24,-16.7400000000,A01525,1,1552624192000
1552624199437.5000000000,24,-20.1800000000,A01525,1,1552624192000
1552624199453.1201171875,24,-22.6900000000,A01525,1,1552624192000
1552624199468.7500000000,24,-24.0700000000,A01525,1,1552624192000
1552624199484.3798828125,24,-24.3800000000,A01525,1,1552624192000
1552624199500.0000000000,24,-23.9300000000,A01525,1,1552624192000
1552624199515.6201171875,24,-23.1300000000,A01525,1,1552624192000
1552624199531.2500000000,24,-22.3400000000,A01525,1,1552624192000
1552624199546.8798828125,24,-21.7800000000,A01525,1,1552624192000
1552624199562.5000000000,24,-21.5100000000,A01525,1,1552624192000
1552624199578.1201171875,24,-21.3700000000,A01525,1,1552624192000
1552624199593.7500000000,24,-20.8800000000,A01525,1,1552624192000
1552624199609.3798828125,24,-19.0400000000,A01525,1,1552624192000
1552624199625.0000000000,24,-14.5500000000,A01525,1,1552624192000
1552624199640.6201171875,24,-6.2100000000,A01525,1,1552624192000
1552624199656.2500000000,24,6.3500000000,A01525,1,1552624192000
1552624199671.8798828125,24,22.1400000000,A01525,1,1552624192000
1552624199687.5000000000,24,38.7700000000,A01525,1,1552624192000
1552624199703.1201171875,24,53.1700000000,A01525,1,1552624192000
1552624199718.7500000000,24,62.6700000000,A01525,1,1552624192000
1552624199734.3798828125,24,66.0200000000,A01525,1,1552624192000
1552624199750.0000000000,24,63.6800000000,A01525,1,1552624192000
1552624199765.6201171875,24,57.3800000000,A01525,1,1552624192000
1552624199781.2500000000,24,49.2200000000,A01525,1,1552624192000
1552624199796.8798828125,24,40.7800000000,A01525,1,1552624192000
1552624199812.5000000000,24,32.8000000000,A01525,1,1552624192000
1552624199828.1201171875,24,25.4100000000,A01525,1,1552624192000
1552624199843.7500000000,24,18.6600000000,A01525,1,1552624192000
1552624199859.3798828125,24,12.8500000000,A01525,1,1552624192000
1552624199875.0000000000,24,8.3900000000,A01525,1,1552624192000
1552624199890.6201171875,24,5.5800000000,A01525,1,1552624192000
1552624199906.2500000000,24,4.2100000000,A01525,1,1552624192000
1552624199921.8798828125,24,3.5600000000,A01525,1,1552624192000
1552624199937.5000000000,24,2.6000000000,A01525,1,1552624192000
1552624199953.1201171875,24,0.4900000000,A01525,1,1552624192000
1552624199968.7500000000,24,-3.1200000000,A01525,1,1552624192000
1552624199984.3798828125,24,-7.9600000000,A01525,1,1552624192000
1552624200000.0000000000,24,-13.4000000000,A01525,1,1552624192000
1552624200015.6201171875,24,-18.6000000000,A01525,1,1552624192000
1552624200031.2500000000,24,-22.8400000000,A01525,1,1552624192000
1552624200046.8798828125,24,-25.5400000000,A01525,1,1552624192000
1552624200062.5000000000,24,-26.3800000000,A01525,1,1552624192000
1552624200078.1201171875,24,-25.2500000000,A01525,1,1552624192000
1552624200093.7500000000,24,-22.3400000000,A01525,1,1552624192000
1552624200109.3798828125,24,-18.2700000000,A01525,1,1552624192000
1552624200125.0000000000,24,-14.0800000000,A01525,1,1552624192000
1552624200140.6201171875,24,-11.0600000000,A01525,1,1552624192000
1552624200156.2500000000,24,-10.2900000000,A01525,1,1552624192000
1552624200171.8798828125,24,-12.1700000000,A01525,1,1552624192000
1552624200187.5000000000,24,-16.1100000000,A01525,1,1552624192000
1552624200203.1201171875,24,-20.7300000000,A01525,1,1552624192000
1552624200218.7500000000,24,-24.4000000000,A01525,1,1552624192000
1552624200234.3798828125,24,-25.9000000000,A01525,1,1552624192000
1552624200250.0000000000,24,-24.9600000000,A01525,1,1552624192000
1552624200265.6201171875,24,-22.1700000000,A01525,1,1552624192000
1552624200281.2500000000,24,-18.5700000000,A01525,1,1552624192000
1552624200296.8798828125,24,-15.0200000000,A01525,1,1552624192000
1552624200312.5000000000,24,-11.8400000000,A01525,1,1552624192000
1552624200328.1201171875,24,-8.9300000000,A01525,1,1552624192000
1552624200343.7500000000,24,-6.0000000000,A01525,1,1552624192000
1552624200359.3798828125,24,-3.0700000000,A01525,1,1552624192000
1552624200375.0000000000,24,-0.5300000000,A01525,1,1552624192000
1552624200390.6201171875,24,1.0400000000,A01525,1,1552624192000
1552624200406.2500000000,24,1.2000000000,A01525,1,1552624192000
1552624200421.8798828125,24,0.0100000000,A01525,1,1552624192000
1552624200437.5000000000,24,-2.0400000000,A01525,1,1552624192000
1552624200453.1201171875,24,-4.1700000000,A01525,1,1552624192000
1552624200468.7500000000,24,-5.7300000000,A01525,1,1552624192000
1552624200484.3798828125,24,-6.4000000000,A01525,1,1552624192000
1552624200500.0000000000,24,-6.3600000000,A01525,1,1552624192000
1552624200515.6201171875,24,-6.1300000000,A01525,1,1552624192000
1552624200531.2500000000,24,-6.2700000000,A01525,1,1552624192000
1552624200546.8798828125,24,-7.1600000000,A01525,1,1552624192000
1552624200562.5000000000,24,-8.7700000000,A01525,1,1552624192000
1552624200578.1201171875,24,-10.6700000000,A01525,1,1552624192000
1552624200593.7500000000,24,-12.2300000000,A01525,1,1552624192000
1552624200609.3798828125,24,-12.8500000000,A01525,1,1552624192000
1552624200625.0000000000,24,-12.3000000000,A01525,1,1552624192000
1552624200640.6201171875,24,-10.7400000000,A01525,1,1552624192000
1552624200656.2500000000,24,-8.6100000000,A01525,1,1552624192000
1552624200671.8798828125,24,-6.4000000000,A01525,1,1552624192000
1552624200687.5000000000,24,-4.4100000000,A01525,1,1552624192000
1552624200703.1201171875,24,-2.6900000000,A01525,1,1552624192000
1552624200718.7500000000,24,-1.1000000000,A01525,1,1552624192000
1552624200734.3798828125,24,0.4900000000,A01525,1,1552624192000
1552624200750.0000000000,24,2.0100000000,A01525,1,1552624192000
1552624200765.6201171875,24,3.3000000000,A01525,1,1552624192000
1552624200781.2500000000,24,4.2100000000,A01525,1,1552624192000
1552624200796.8798828125,24,4.7700000000,A01525,1,1552624192000
1552624200812.5000000000,24,5.2300000000,A01525,1,1552624192000
1552624200828.1201171875,24,5.9200000000,A01525,1,1552624192000
1552624200843.7500000000,24,6.9900000000,A01525,1,1552624192000
1552624200859.3798828125,24,8.2900000000,A01525,1,1552624192000
1552624200875.0000000000,24,9.3600000000,A01525,1,1552624192000
1552624200890.6201171875,24,9.6800000000,A01525,1,1552624192000
1552624200906.2500000000,24,8.9400000000,A01525,1,1552624192000
1552624200921.8798828125,24,7.2800000000,A01525,1,1552624192000
1552624200937.5000000000,24,5.2000000000,A01525,1,1552624192000
1552624200953.1201171875,24,3.3700000000,A01525,1,1552624192000
1552624200968.7500000000,24,2.2200000000,A01525,1,1552624192000
1552624200984.3798828125,24,1.8200000000,A01525,1,1552624192000
1552624201000.0000000000,24,1.8400000000,A01525,1,1552624192000
1552624201015.6201171875,24,1.7600000000,A01525,1,1552624192000
1552624201031.2500000000,24,1.1800000000,A01525,1,1552624192000
1552624201046.8798828125,24,0.0500000000,A01525,1,1552624192000
1552624201062.5000000000,24,-1.4600000000,A01525,1,1552624192000
1552624201078.1201171875,24,-3.0200000000,A01525,1,1552624192000
1552624201093.7500000000,24,-4.5300000000,A01525,1,1552624192000
1552624201109.3798828125,24,-6.0800000000,A01525,1,1552624192000
1552624201125.0000000000,24,-8.0100000000,A01525,1,1552624192000
1552624201140.6201171875,24,-10.5600000000,A01525,1,1552624192000
1552624201156.2500000000,24,-13.6200000000,A01525,1,1552624192000
1552624201171.8798828125,24,-16.6500000000,A01525,1,1552624192000
1552624201187.5000000000,24,-18.8400000000,A01525,1,1552624192000
1552624201203.1201171875,24,-19.4700000000,A01525,1,1552624192000
1552624201218.7500000000,24,-18.2700000000,A01525,1,1552624192000
1552624201234.3798828125,24,-15.5100000000,A01525,1,1552624192000
1552624201250.0000000000,24,-11.9500000000,A01525,1,1552624192000
1552624201265.6201171875,24,-8.4300000000,A01525,1,1552624192000
1552624201281.2500000000,24,-5.5900000000,A01525,1,1552624192000
1552624201296.8798828125,24,-3.6000000000,A01525,1,1552624192000
1552624201312.5000000000,24,-2.2800000000,A01525,1,1552624192000
1552624201328.1201171875,24,-1.2500000000,A01525,1,1552624192000
1552624201343.7500000000,24,-0.1800000000,A01525,1,1552624192000
1552624201359.3798828125,24,1.1200000000,A01525,1,1552624192000
1552624201375.0000000000,24,2.6000000000,A01525,1,1552624192000
1552624201390.6201171875,24,4.0600000000,A01525,1,1552624192000
1552624201406.2500000000,24,5.2600000000,A01525,1,1552624192000
1552624201421.8798828125,24,6.0100000000,A01525,1,1552624192000
1552624201437.5000000000,24,6.2800000000,A01525,1,1552624192000
1552624201453.1201171875,24,6.1600000000,A01525,1,1552624192000
1552624201468.7500000000,24,5.8700000000,A01525,1,1552624192000
1552624201484.3798828125,24,5.6300000000,A01525,1,1552624192000
1552624201500.0000000000,24,5.5000000000,A01525,1,1552624192000
1552624201515.6201171875,24,5.4000000000,A01525,1,1552624192000
1552624201531.2500000000,24,5.1400000000,A01525,1,1552624192000
1552624201546.8798828125,24,4.6100000000,A01525,1,1552624192000
1552624201562.5000000000,24,3.8700000000,A01525,1,1552624192000
1552624201578.1201171875,24,3.1800000000,A01525,1,1552624192000
1552624201593.7500000000,24,2.7200000000,A01525,1,1552624192000
1552624201609.3798828125,24,2.5100000000,A01525,1,1552624192000
1552624201625.0000000000,24,2.2500000000,A01525,1,1552624192000
1552624201640.6201171875,24,1.5000000000,A01525,1,1552624192000
1552624201656.2500000000,24,-0.1000000000,A01525,1,1552624192000
1552624201671.8798828125,24,-2.5400000000,A01525,1,1552624192000
1552624201687.5000000000,24,-5.4600000000,A01525,1,1552624192000
1552624201703.1201171875,24,-8.2700000000,A01525,1,1552624192000
1552624201718.7500000000,24,-10.5000000000,A01525,1,1552624192000
1552624201734.3798828125,24,-11.9800000000,A01525,1,1552624192000
1552624201750.0000000000,24,-12.9100000000,A01525,1,1552624192000
1552624201765.6201171875,24,-13.5500000000,A01525,1,1552624192000
1552624201781.2500000000,24,-14.0300000000,A01525,1,1552624192000
1552624201796.8798828125,24,-14.1300000000,A01525,1,1552624192000
1552624201812.5000000000,24,-13.4800000000,A01525,1,1552624192000
1552624201828.1201171875,24,-11.7100000000,A01525,1,1552624192000
1552624201843.7500000000,24,-8.7800000000,A01525,1,1552624192000
1552624201859.3798828125,24,-5.0000000000,A01525,1,1552624192000
1552624201875.0000000000,24,-0.9900000000,A01525,1,1552624192000
1552624201890.6201171875,24,2.6300000000,A01525,1,1552624192000
1552624201906.2500000000,24,5.4200000000,A01525,1,1552624192000
1552624201921.8798828125,24,7.2100000000,A01525,1,1552624192000
1552624201937.5000000000,24,8.0400000000,A01525,1,1552624192000
1552624201953.1201171875,24,8.0800000000,A01525,1,1552624192000
1552624201968.7500000000,24,7.5600000000,A01525,1,1552624192000
1552624201984.3798828125,24,6.7300000000,A01525,1,1552624192000
1552624202000.0000000000,24,5.8300000000,A01525,1,1552624192000
1552624202015.6201171875,24,5.1000000000,A01525,1,1552624192000
1552624202031.2500000000,24,4.7500000000,A01525,1,1552624192000
1552624202046.8798828125,24,4.8300000000,A01525,1,1552624192000
1552624202062.5000000000,24,5.2900000000,A01525,1,1552624192000
1552624202078.1201171875,24,5.9700000000,A01525,1,1552624192000
1552624202093.7500000000,24,6.6500000000,A01525,1,1552624192000
1552624202109.3798828125,24,7.1300000000,A01525,1,1552624192000
1552624202125.0000000000,24,7.2000000000,A01525,1,1552624192000
1552624202140.6201171875,24,6.6800000000,A01525,1,1552624192000
1552624202156.2500000000,24,5.4400000000,A01525,1,1552624192000
1552624202171.8798828125,24,3.5500000000,A01525,1,1552624192000
1552624202187.5000000000,24,1.2800000000,A01525,1,1552624192000
1552624202203.1201171875,24,-0.9300000000,A01525,1,1552624192000
1552624202218.7500000000,24,-2.6200000000,A01525,1,1552624192000
1552624202234.3798828125,24,-3.5500000000,A01525,1,1552624192000
1552624202250.0000000000,24,-3.8000000000,A01525,1,1552624192000
1552624202265.6201171875,24,-3.7800000000,A01525,1,1552624192000
1552624202281.2500000000,24,-3.9700000000,A01525,1,1552624192000
1552624202296.8798828125,24,-4.7000000000,A01525,1,1552624192000
1552624202312.5000000000,24,-6.0400000000,A01525,1,1552624192000
1552624202328.1201171875,24,-7.7000000000,A01525,1,1552624192000
1552624202343.7500000000,24,-9.3100000000,A01525,1,1552624192000
1552624202359.3798828125,24,-10.5500000000,A01525,1,1552624192000
1552624202375.0000000000,24,-11.3500000000,A01525,1,1552624192000
1552624202390.6201171875,24,-11.7300000000,A01525,1,1552624192000
1552624202406.2500000000,24,-11.7700000000,A01525,1,1552624192000
1552624202421.8798828125,24,-11.3400000000,A01525,1,1552624192000
1552624202437.5000000000,24,-10.2100000000,A01525,1,1552624192000
1552624202453.1201171875,24,-8.0800000000,A01525,1,1552624192000
1552624202468.7500000000,24,-4.9100000000,A01525,1,1552624192000
1552624202484.3798828125,24,-0.9500000000,A01525,1,1552624192000
1552624202500.0000000000,24,3.1900000000,A01525,1,1552624192000
1552624202515.6201171875,24,6.7300000000,A01525,1,1552624192000
1552624202531.2500000000,24,9.1000000000,A01525,1,1552624192000
1552624202546.8798828125,24,10.0700000000,A01525,1,1552624192000
1552624202562.5000000000,24,9.8700000000,A01525,1,1552624192000
1552624202578.1201171875,24,9.0600000000,A01525,1,1552624192000
1552624202593.7500000000,24,8.2900000000,A01525,1,1552624192000
1552624202609.3798828125,24,8.0300000000,A01525,1,1552624192000
1552624202625.0000000000,24,8.4500000000,A01525,1,1552624192000
1552624202640.6201171875,24,9.3400000000,A01525,1,1552624192000
1552624202656.2500000000,24,10.2900000000,A01525,1,1552624192000
1552624202671.8798828125,24,10.8100000000,A01525,1,1552624192000
1552624202687.5000000000,24,10.6000000000,A01525,1,1552624192000
1552624202703.1201171875,24,9.6000000000,A01525,1,1552624192000
1552624202718.7500000000,24,8.0600000000,A01525,1,1552624192000
1552624202734.3798828125,24,6.4300000000,A01525,1,1552624192000
1552624202750.0000000000,24,5.1500000000,A01525,1,1552624192000
1552624202765.6201171875,24,4.4800000000,A01525,1,1552624192000
1552624202781.2500000000,24,4.3500000000,A01525,1,1552624192000
1552624202796.8798828125,24,4.4600000000,A01525,1,1552624192000
1552624202812.5000000000,24,4.4100000000,A01525,1,1552624192000
1552624202828.1201171875,24,3.9200000000,A01525,1,1552624192000
1552624202843.7500000000,24,2.8900000000,A01525,1,1552624192000
1552624202859.3798828125,24,1.4300000000,A01525,1,1552624192000
1552624202875.0000000000,24,-0.3300000000,A01525,1,1552624192000
1552624202890.6201171875,24,-2.3400000000,A01525,1,1552624192000
1552624202906.2500000000,24,-4.6400000000,A01525,1,1552624192000
1552624202921.8798828125,24,-7.3200000000,A01525,1,1552624192000
1552624202937.5000000000,24,-10.2500000000,A01525,1,1552624192000
1552624202953.1201171875,24,-13.1300000000,A01525,1,1552624192000
1552624202968.7500000000,24,-15.4400000000,A01525,1,1552624192000
1552624202984.3798828125,24,-16.6600000000,A01525,1,1552624192000
1552624203000.0000000000,24,-16.5700000000,A01525,1,1552624192000
1552624203015.6201171875,24,-15.3100000000,A01525,1,1552624192000
1552624203031.2500000000,24,-13.3800000000,A01525,1,1552624192000
1552624203046.8798828125,24,-11.3800000000,A01525,1,1552624192000
1552624203062.5000000000,24,-9.7800000000,A01525,1,1552624192000
1552624203078.1201171875,24,-8.7000000000,A01525,1,1552624192000
1552624203093.7500000000,24,-7.9400000000,A01525,1,1552624192000
1552624203109.3798828125,24,-7.1500000000,A01525,1,1552624192000
1552624203125.0000000000,24,-6.0100000000,A01525,1,1552624192000
1552624203140.6201171875,24,-4.4900000000,A01525,1,1552624192000
1552624203156.2500000000,24,-2.7500000000,A01525,1,1552624192000
1552624203171.8798828125,24,-1.0700000000,A01525,1,1552624192000
1552624203187.5000000000,24,0.3800000000,A01525,1,1552624192000
1552624203203.1201171875,24,1.5900000000,A01525,1,1552624192000
1552624203218.7500000000,24,2.7000000000,A01525,1,1552624192000
1552624203234.3798828125,24,3.8200000000,A01525,1,1552624192000
1552624203250.0000000000,24,4.9100000000,A01525,1,1552624192000
1552624203265.6201171875,24,5.7900000000,A01525,1,1552624192000
1552624203281.2500000000,24,6.2100000000,A01525,1,1552624192000
1552624203296.8798828125,24,6.0600000000,A01525,1,1552624192000
1552624203312.5000000000,24,5.4800000000,A01525,1,1552624192000
1552624203328.1201171875,24,4.7900000000,A01525,1,1552624192000
1552624203343.7500000000,24,4.2900000000,A01525,1,1552624192000
1552624203359.3798828125,24,4.2200000000,A01525,1,1552624192000
1552624203375.0000000000,24,4.4800000000,A01525,1,1552624192000
1552624203390.6201171875,24,4.8400000000,A01525,1,1552624192000
1552624203406.2500000000,24,5.0200000000,A01525,1,1552624192000
1552624203421.8798828125,24,4.8600000000,A01525,1,1552624192000
1552624203437.5000000000,24,4.4100000000,A01525,1,1552624192000
1552624203453.1201171875,24,3.7900000000,A01525,1,1552624192000
1552624203468.7500000000,24,3.1500000000,A01525,1,1552624192000
1552624203484.3798828125,24,2.5300000000,A01525,1,1552624192000
1552624203500.0000000000,24,1.8400000000,A01525,1,1552624192000
1552624203515.6201171875,24,0.8900000000,A01525,1,1552624192000
1552624203531.2500000000,24,-0.4700000000,A01525,1,1552624192000
1552624203546.8798828125,24,-2.2600000000,A01525,1,1552624192000
1552624203562.5000000000,24,-4.4100000000,A01525,1,1552624192000
1552624203578.1201171875,24,-6.6800000000,A01525,1,1552624192000
1552624203593.7500000000,24,-8.7800000000,A01525,1,1552624192000
1552624203609.3798828125,24,-10.3800000000,A01525,1,1552624192000
1552624203625.0000000000,24,-11.2500000000,A01525,1,1552624192000
1552624203640.6201171875,24,-11.3000000000,A01525,1,1552624192000
1552624203656.2500000000,24,-10.6200000000,A01525,1,1552624192000
1552624203671.8798828125,24,-9.4300000000,A01525,1,1552624192000
1552624203687.5000000000,24,-7.9700000000,A01525,1,1552624192000
1552624203703.1201171875,24,-6.4000000000,A01525,1,1552624192000
1552624203718.7500000000,24,-4.7200000000,A01525,1,1552624192000
1552624203734.3798828125,24,-2.8600000000,A01525,1,1552624192000
1552624203750.0000000000,24,-0.6800000000,A01525,1,1552624192000
1552624203765.6201171875,24,1.7500000000,A01525,1,1552624192000
1552624203781.2500000000,24,4.2100000000,A01525,1,1552624192000
1552624203796.8798828125,24,6.3900000000,A01525,1,1552624192000
1552624203812.5000000000,24,7.9700000000,A01525,1,1552624192000
1552624203828.1201171875,24,8.8400000000,A01525,1,1552624192000
1552624203843.7500000000,24,9.0300000000,A01525,1,1552624192000
1552624203859.3798828125,24,8.7000000000,A01525,1,1552624192000
1552624203875.0000000000,24,8.0800000000,A01525,1,1552624192000
1552624203890.6201171875,24,7.3400000000,A01525,1,1552624192000
1552624203906.2500000000,24,6.7000000000,A01525,1,1552624192000
1552624203921.8798828125,24,6.4200000000,A01525,1,1552624192000
1552624203937.5000000000,24,6.7800000000,A01525,1,1552624192000
1552624203953.1201171875,24,7.9000000000,A01525,1,1552624192000
1552624203968.7500000000,24,9.5800000000,A01525,1,1552624192000
1552624203984.3798828125,24,11.2700000000,A01525,1,1552624192000
1552624204000.0000000000,24,12.2100000000,A01525,1,1552624192000
1552624204015.6201171875,24,11.8000000000,A01525,1,1552624192000
1552624204031.2500000000,24,9.8500000000,A01525,1,1552624192000
1552624204046.8798828125,24,6.7900000000,A01525,1,1552624192000
1552624204062.5000000000,24,3.4200000000,A01525,1,1552624192000
1552624204078.1201171875,24,0.5200000000,A01525,1,1552624192000
1552624204093.7500000000,24,-1.4600000000,A01525,1,1552624192000
1552624204109.3798828125,24,-2.5900000000,A01525,1,1552624192000
1552624204125.0000000000,24,-3.3000000000,A01525,1,1552624192000
1552624204140.6201171875,24,-4.1400000000,A01525,1,1552624192000
1552624204156.2500000000,24,-5.4400000000,A01525,1,1552624192000
1552624204171.8798828125,24,-7.2600000000,A01525,1,1552624192000
1552624204187.5000000000,24,-9.4100000000,A01525,1,1552624192000
1552624204203.1201171875,24,-11.5900000000,A01525,1,1552624192000
1552624204218.7500000000,24,-13.4800000000,A01525,1,1552624192000
1552624204234.3798828125,24,-14.8100000000,A01525,1,1552624192000
1552624204250.0000000000,24,-15.3400000000,A01525,1,1552624192000
1552624204265.6201171875,24,-14.9200000000,A01525,1,1552624192000
1552624204281.2500000000,24,-13.5700000000,A01525,1,1552624192000
1552624204296.8798828125,24,-11.4900000000,A01525,1,1552624192000
1552624204312.5000000000,24,-9.0200000000,A01525,1,1552624192000
1552624204328.1201171875,24,-6.5400000000,A01525,1,1552624192000
1552624204343.7500000000,24,-4.3400000000,A01525,1,1552624192000
1552624204359.3798828125,24,-2.4500000000,A01525,1,1552624192000
1552624204375.0000000000,24,-0.7900000000,A01525,1,1552624192000
1552624204390.6201171875,24,0.7800000000,A01525,1,1552624192000
1552624204406.2500000000,24,2.2500000000,A01525,1,1552624192000
1552624204421.8798828125,24,3.5100000000,A01525,1,1552624192000
1552624204437.5000000000,24,4.4700000000,A01525,1,1552624192000
1552624204453.1201171875,24,5.1100000000,A01525,1,1552624192000
1552624204468.7500000000,24,5.6000000000,A01525,1,1552624192000
1552624204484.3798828125,24,6.1700000000,A01525,1,1552624192000
1552624204500.0000000000,24,6.9800000000,A01525,1,1552624192000
1552624204515.6201171875,24,7.9300000000,A01525,1,1552624192000
1552624204531.2500000000,24,8.6800000000,A01525,1,1552624192000
1552624204546.8798828125,24,8.8800000000,A01525,1,1552624192000
1552624204562.5000000000,24,8.3800000000,A01525,1,1552624192000
1552624204578.1201171875,24,7.3600000000,A01525,1,1552624192000
1552624204593.7500000000,24,6.2600000000,A01525,1,1552624192000
1552624204609.3798828125,24,5.5700000000,A01525,1,1552624192000
1552624204625.0000000000,24,5.5900000000,A01525,1,1552624192000
1552624204640.6201171875,24,6.1200000000,A01525,1,1552624192000
1552624204656.2500000000,24,6.6800000000,A01525,1,1552624192000
1552624204671.8798828125,24,6.7100000000,A01525,1,1552624192000
1552624204687.5000000000,24,5.8400000000,A01525,1,1552624192000
1552624204703.1201171875,24,4.1800000000,A01525,1,1552624192000
1552624204718.7500000000,24,2.1400000000,A01525,1,1552624192000
1552624204734.3798828125,24,0.2300000000,A01525,1,1552624192000
1552624204750.0000000000,24,-1.2100000000,A01525,1,1552624192000
1552624204765.6201171875,24,-2.2400000000,A01525,1,1552624192000
1552624204781.2500000000,24,-3.1900000000,A01525,1,1552624192000
1552624204796.8798828125,24,-4.4300000000,A01525,1,1552624192000
1552624204812.5000000000,24,-6.1200000000,A01525,1,1552624192000
1552624204828.1201171875,24,-8.1300000000,A01525,1,1552624192000
1552624204843.7500000000,24,-10.0800000000,A01525,1,1552624192000
1552624204859.3798828125,24,-11.6200000000,A01525,1,1552624192000
1552624204875.0000000000,24,-12.5400000000,A01525,1,1552624192000
1552624204890.6201171875,24,-12.8700000000,A01525,1,1552624192000
1552624204906.2500000000,24,-12.7300000000,A01525,1,1552624192000
1552624204921.8798828125,24,-12.1900000000,A01525,1,1552624192000
1552624204937.5000000000,24,-11.1400000000,A01525,1,1552624192000
1552624204953.1201171875,24,-9.3900000000,A01525,1,1552624192000
1552624204968.7500000000,24,-6.8700000000,A01525,1,1552624192000
1552624204984.3798828125,24,-3.7500000000,A01525,1,1552624192000
1552624205000.0000000000,24,-0.5100000000,A01525,1,1552624192000
1552624205015.6201171875,24,2.2300000000,A01525,1,1552624192000
1552624205031.2500000000,24,4.0100000000,A01525,1,1552624192000
1552624205046.8798828125,24,4.7500000000,A01525,1,1552624192000
1552624205062.5000000000,24,4.8100000000,A01525,1,1552624192000
1552624205078.1201171875,24,4.7900000000,A01525,1,1552624192000
1552624205093.7500000000,24,5.2200000000,A01525,1,1552624192000
1552624205109.3798828125,24,6.2300000000,A01525,1,1552624192000
1552624205125.0000000000,24,7.4900000000,A01525,1,1552624192000
1552624205140.6201171875,24,8.3900000000,A01525,1,1552624192000
1552624205156.2500000000,24,8.3700000000,A01525,1,1552624192000
1552624205171.8798828125,24,7.3300000000,A01525,1,1552624192000
1552624205187.5000000000,24,5.7200000000,A01525,1,1552624192000
1552624205203.1201171875,24,4.3300000000,A01525,1,1552624192000
1552624205218.7500000000,24,3.8500000000,A01525,1,1552624192000
1552624205234.3798828125,24,4.4300000000,A01525,1,1552624192000
1552624205250.0000000000,24,5.4900000000,A01525,1,1552624192000
1552624205265.6201171875,24,6.0400000000,A01525,1,1552624192000
1552624205281.2500000000,24,5.1900000000,A01525,1,1552624192000
1552624205296.8798828125,24,2.6200000000,A01525,1,1552624192000
1552624205312.5000000000,24,-1.1900000000,A01525,1,1552624192000
1552624205328.1201171875,24,-5.3900000000,A01525,1,1552624192000
1552624205343.7500000000,24,-9.2200000000,A01525,1,1552624192000
1552624205359.3798828125,24,-12.3700000000,A01525,1,1552624192000
1552624205375.0000000000,24,-14.7600000000,A01525,1,1552624192000
1552624205390.6201171875,24,-15.9800000000,A01525,1,1552624192000
1552624205406.2500000000,24,-15.2600000000,A01525,1,1552624192000
1552624205421.8798828125,24,-12.0400000000,A01525,1,1552624192000
1552624205437.5000000000,24,-6.8500000000,A01525,1,1552624192000
1552624205453.1201171875,24,-1.8300000000,A01525,1,1552624192000
1552624205468.7500000000,24,0.0100000000,A01525,1,1552624192000
1552624205484.3798828125,24,-3.6000000000,A01525,1,1552624192000
1552624205500.0000000000,24,-12.5800000000,A01525,1,1552624192000
1552624205515.6201171875,24,-24.2800000000,A01525,1,1552624192000
1552624205531.2500000000,24,-34.7300000000,A01525,1,1552624192000
1552624205546.8798828125,24,-40.6100000000,A01525,1,1552624192000
1552624205562.5000000000,24,-40.8600000000,A01525,1,1552624192000
1552624205578.1201171875,24,-36.6400000000,A01525,1,1552624192000
1552624205593.7500000000,24,-30.1600000000,A01525,1,1552624192000
1552624205609.3798828125,24,-23.0100000000,A01525,1,1552624192000
1552624205625.0000000000,24,-15.5100000000,A01525,1,1552624192000
1552624205640.6201171875,24,-7.1800000000,A01525,1,1552624192000
1552624205656.2500000000,24,2.0700000000,A01525,1,1552624192000
1552624205671.8798828125,24,11.1900000000,A01525,1,1552624192000
1552624205687.5000000000,24,18.3200000000,A01525,1,1552624192000
1552624205703.1201171875,24,21.8100000000,A01525,1,1552624192000
1552624205718.7500000000,24,21.3600000000,A01525,1,1552624192000
1552624205734.3798828125,24,18.2100000000,A01525,1,1552624192000
1552624205750.0000000000,24,14.4800000000,A01525,1,1552624192000
1552624205765.6201171875,24,12.1800000000,A01525,1,1552624192000
1552624205781.2500000000,24,12.4600000000,A01525,1,1552624192000
1552624205796.8798828125,24,15.2900000000,A01525,1,1552624192000
1552624205812.5000000000,24,19.6800000000,A01525,1,1552624192000
1552624205828.1201171875,24,23.9700000000,A01525,1,1552624192000
1552624205843.7500000000,24,26.3800000000,A01525,1,1552624192000
1552624205859.3798828125,24,25.6100000000,A01525,1,1552624192000
1552624205875.0000000000,24,21.1900000000,A01525,1,1552624192000
1552624205890.6201171875,24,13.6900000000,A01525,1,1552624192000
1552624205906.2500000000,24,4.2800000000,A01525,1,1552624192000
1552624205921.8798828125,24,-5.7700000000,A01525,1,1552624192000
1552624205937.5000000000,24,-15.6600000000,A01525,1,1552624192000
1552624205953.1201171875,24,-25.0000000000,A01525,1,1552624192000
1552624205968.7500000000,24,-33.5000000000,A01525,1,1552624192000
1552624205984.3798828125,24,-40.6200000000,A01525,1,1552624192000
1552624206000.0000000000,24,-45.4000000000,A01525,1,1552624192000
1552624206015.6201171875,24,-46.8700000000,A01525,1,1552624192000
1552624206031.2500000000,24,-44.6000000000,A01525,1,1552624192000
1552624206046.8798828125,24,-39.1200000000,A01525,1,1552624192000
1552624206062.5000000000,24,-31.6800000000,A01525,1,1552624192000
1552624206078.1201171875,24,-23.8200000000,A01525,1,1552624192000
1552624206093.7500000000,24,-16.6300000000,A01525,1,1552624192000
1552624206109.3798828125,24,-10.4500000000,A01525,1,1552624192000
1552624206125.0000000000,24,-4.9700000000,A01525,1,1552624192000
1552624206140.6201171875,24,0.1800000000,A01525,1,1552624192000
1552624206156.2500000000,24,5.1000000000,A01525,1,1552624192000
1552624206171.8798828125,24,9.5200000000,A01525,1,1552624192000
1552624206187.5000000000,24,13.1700000000,A01525,1,1552624192000
1552624206203.1201171875,24,16.0400000000,A01525,1,1552624192000
1552624206218.7500000000,24,18.5600000000,A01525,1,1552624192000
1552624206234.3798828125,24,21.3100000000,A01525,1,1552624192000
1552624206250.0000000000,24,24.6700000000,A01525,1,1552624192000
1552624206265.6201171875,24,28.4500000000,A01525,1,1552624192000
1552624206281.2500000000,24,31.9700000000,A01525,1,1552624192000
1552624206296.8798828125,24,34.4300000000,A01525,1,1552624192000
1552624206312.5000000000,24,35.3200000000,A01525,1,1552624192000
1552624206328.1201171875,24,34.7100000000,A01525,1,1552624192000
1552624206343.7500000000,24,33.1500000000,A01525,1,1552624192000
1552624206359.3798828125,24,31.2600000000,A01525,1,1552624192000
1552624206375.0000000000,24,29.4900000000,A01525,1,1552624192000
1552624206390.6201171875,24,27.9400000000,A01525,1,1552624192000
1552624206406.2500000000,24,26.4600000000,A01525,1,1552624192000
1552624206421.8798828125,24,25.0200000000,A01525,1,1552624192000
1552624206437.5000000000,24,23.7600000000,A01525,1,1552624192000
1552624206453.1201171875,24,22.9600000000,A01525,1,1552624192000
1552624206468.7500000000,24,22.8500000000,A01525,1,1552624192000
1552624206484.3798828125,24,23.3600000000,A01525,1,1552624192000
1552624206500.0000000000,24,24.1300000000,A01525,1,1552624192000
1552624206515.6201171875,24,24.6300000000,A01525,1,1552624192000
1552624206531.2500000000,24,24.3000000000,A01525,1,1552624192000
1552624206546.8798828125,24,22.7400000000,A01525,1,1552624192000
1552624206562.5000000000,24,19.7400000000,A01525,1,1552624192000
1552624206578.1201171875,24,15.2700000000,A01525,1,1552624192000
1552624206593.7500000000,24,9.5700000000,A01525,1,1552624192000
1552624206609.3798828125,24,3.1600000000,A01525,1,1552624192000
1552624206625.0000000000,24,-3.2700000000,A01525,1,1552624192000
1552624206640.6201171875,24,-9.0200000000,A01525,1,1552624192000
1552624206656.2500000000,24,-13.5900000000,A01525,1,1552624192000
1552624206671.8798828125,24,-16.7700000000,A01525,1,1552624192000
1552624206687.5000000000,24,-18.6000000000,A01525,1,1552624192000
1552624206703.1201171875,24,-19.2300000000,A01525,1,1552624192000
1552624206718.7500000000,24,-18.8500000000,A01525,1,1552624192000
1552624206734.3798828125,24,-17.6100000000,A01525,1,1552624192000
1552624206750.0000000000,24,-15.7900000000,A01525,1,1552624192000
1552624206765.6201171875,24,-13.7200000000,A01525,1,1552624192000
1552624206781.2500000000,24,-11.8000000000,A01525,1,1552624192000
1552624206796.8798828125,24,-10.2600000000,A01525,1,1552624192000
1552624206812.5000000000,24,-9.0000000000,A01525,1,1552624192000
1552624206828.1201171875,24,-7.6900000000,A01525,1,1552624192000
1552624206843.7500000000,24,-5.9100000000,A01525,1,1552624192000
1552624206859.3798828125,24,-3.5100000000,A01525,1,1552624192000
1552624206875.0000000000,24,-0.7000000000,A01525,1,1552624192000
1552624206890.6201171875,24,1.9300000000,A01525,1,1552624192000
1552624206906.2500000000,24,3.6700000000,A01525,1,1552624192000
1552624206921.8798828125,24,3.9900000000,A01525,1,1552624192000
1552624206937.5000000000,24,2.8900000000,A01525,1,1552624192000
1552624206953.1201171875,24,0.8000000000,A01525,1,1552624192000
1552624206968.7500000000,24,-1.4200000000,A01525,1,1552624192000
1552624206984.3798828125,24,-2.9100000000,A01525,1,1552624192000
1552624207000.0000000000,24,-3.1300000000,A01525,1,1552624192000
1552624207015.6201171875,24,-2.1200000000,A01525,1,1552624192000
1552624207031.2500000000,24,-0.5100000000,A01525,1,1552624192000
1552624207046.8798828125,24,0.7900000000,A01525,1,1552624192000
1552624207062.5000000000,24,1.0700000000,A01525,1,1552624192000
1552624207078.1201171875,24,0.1700000000,A01525,1,1552624192000
1552624207093.7500000000,24,-1.4900000000,A01525,1,1552624192000
1552624207109.3798828125,24,-3.1600000000,A01525,1,1552624192000
1552624207125.0000000000,24,-4.1900000000,A01525,1,1552624192000
1552624207140.6201171875,24,-4.4200000000,A01525,1,1552624192000
1552624207156.2500000000,24,-4.2600000000,A01525,1,1552624192000
1552624207171.8798828125,24,-4.3800000000,A01525,1,1552624192000
1552624207187.5000000000,24,-5.3000000000,A01525,1,1552624192000
1552624207203.1201171875,24,-7.1200000000,A01525,1,1552624192000
1552624207218.7500000000,24,-9.4800000000,A01525,1,1552624192000
1552624207234.3798828125,24,-11.7200000000,A01525,1,1552624192000
1552624207250.0000000000,24,-13.2700000000,A01525,1,1552624192000
1552624207265.6201171875,24,-13.8600000000,A01525,1,1552624192000
1552624207281.2500000000,24,-13.5900000000,A01525,1,1552624192000
1552624207296.8798828125,24,-12.7900000000,A01525,1,1552624192000
1552624207312.5000000000,24,-11.8100000000,A01525,1,1552624192000
1552624207328.1201171875,24,-10.7100000000,A01525,1,1552624192000
1552624207343.7500000000,24,-9.3500000000,A01525,1,1552624192000
1552624207359.3798828125,24,-7.4400000000,A01525,1,1552624192000
1552624207375.0000000000,24,-4.8200000000,A01525,1,1552624192000
1552624207390.6201171875,24,-1.6000000000,A01525,1,1552624192000
1552624207406.2500000000,24,1.7600000000,A01525,1,1552624192000
1552624207421.8798828125,24,4.7400000000,A01525,1,1552624192000
1552624207437.5000000000,24,7.0200000000,A01525,1,1552624192000
1552624207453.1201171875,24,8.6300000000,A01525,1,1552624192000
1552624207468.7500000000,24,9.9300000000,A01525,1,1552624192000
1552624207484.3798828125,24,11.3400000000,A01525,1,1552624192000
1552624207500.0000000000,24,13.0600000000,A01525,1,1552624192000
1552624207515.6201171875,24,14.9900000000,A01525,1,1552624192000
1552624207531.2500000000,24,16.6700000000,A01525,1,1552624192000
1552624207546.8798828125,24,17.6200000000,A01525,1,1552624192000
1552624207562.5000000000,24,17.5800000000,A01525,1,1552624192000
1552624207578.1201171875,24,16.6700000000,A01525,1,1552624192000
1552624207593.7500000000,24,15.3300000000,A01525,1,1552624192000
1552624207609.3798828125,24,14.0900000000,A01525,1,1552624192000
1552624207625.0000000000,24,13.3600000000,A01525,1,1552624192000
1552624207640.6201171875,24,13.2200000000,A01525,1,1552624192000
1552624207656.2500000000,24,13.3900000000,A01525,1,1552624192000
1552624207671.8798828125,24,13.4200000000,A01525,1,1552624192000
1552624207687.5000000000,24,12.9200000000,A01525,1,1552624192000
1552624207703.1201171875,24,11.7700000000,A01525,1,1552624192000
1552624207718.7500000000,24,10.0800000000,A01525,1,1552624192000
1552624207734.3798828125,24,8.1400000000,A01525,1,1552624192000
1552624207750.0000000000,24,6.1800000000,A01525,1,1552624192000
1552624207765.6201171875,24,4.1900000000,A01525,1,1552624192000
1552624207781.2500000000,24,2.0000000000,A01525,1,1552624192000
1552624207796.8798828125,24,-0.6400000000,A01525,1,1552624192000
1552624207812.5000000000,24,-3.7900000000,A01525,1,1552624192000
1552624207828.1201171875,24,-7.2200000000,A01525,1,1552624192000
1552624207843.7500000000,24,-10.4700000000,A01525,1,1552624192000
1552624207859.3798828125,24,-13.0700000000,A01525,1,1552624192000
1552624207875.0000000000,24,-14.7200000000,A01525,1,1552624192000
1552624207890.6201171875,24,-15.4700000000,A01525,1,1552624192000
1552624207906.2500000000,24,-15.5800000000,A01525,1,1552624192000
1552624207921.8798828125,24,-15.4000000000,A01525,1,1552624192000
1552624207937.5000000000,24,-15.1300000000,A01525,1,1552624192000
1552624207953.1201171875,24,-14.7000000000,A01525,1,1552624192000
1552624207968.7500000000,24,-13.9000000000,A01525,1,1552624192000
1552624207984.3798828125,24,-12.4800000000,A01525,1,1552624192000
1552624208000.0000000000,24,-10.3900000000,A01525,1,1552624192000
1552624208015.6201171875,24,-7.7500000000,A01525,1,1552624192000
1552624208031.2500000000,24,-4.8300000000,A01525,1,1552624192000
1552624208046.8798828125,24,-1.8800000000,A01525,1,1552624192000
1552624208062.5000000000,24,1.0200000000,A01525,1,1552624192000
1552624208078.1201171875,24,3.8700000000,A01525,1,1552624192000
1552624208093.7500000000,24,6.6700000000,A01525,1,1552624192000
1552624208109.3798828125,24,9.2800000000,A01525,1,1552624192000
1552624208125.0000000000,24,11.4100000000,A01525,1,1552624192000
1552624208140.6201171875,24,12.7500000000,A01525,1,1552624192000
1552624208156.2500000000,24,13.0400000000,A01525,1,1552624192000
1552624208171.8798828125,24,12.3300000000,A01525,1,1552624192000
1552624208187.5000000000,24,10.9000000000,A01525,1,1552624192000
1552624208203.1201171875,24,9.3300000000,A01525,1,1552624192000
1552624208218.7500000000,24,8.1900000000,A01525,1,1552624192000
1552624208234.3798828125,24,7.9000000000,A01525,1,1552624192000
1552624208250.0000000000,24,8.5100000000,A01525,1,1552624192000
1552624208265.6201171875,24,9.6700000000,A01525,1,1552624192000
1552624208281.2500000000,24,10.7700000000,A01525,1,1552624192000
1552624208296.8798828125,24,11.2300000000,A01525,1,1552624192000
1552624208312.5000000000,24,10.7200000000,A01525,1,1552624192000
1552624208328.1201171875,24,9.3500000000,A01525,1,1552624192000
1552624208343.7500000000,24,7.5200000000,A01525,1,1552624192000
1552624208359.3798828125,24,5.6200000000,A01525,1,1552624192000
1552624208375.0000000000,24,3.8900000000,A01525,1,1552624192000
1552624208390.6201171875,24,2.2800000000,A01525,1,1552624192000
1552624208406.2500000000,24,0.5600000000,A01525,1,1552624192000
1552624208421.8798828125,24,-1.3800000000,A01525,1,1552624192000
1552624208437.5000000000,24,-3.5600000000,A01525,1,1552624192000
1552624208453.1201171875,24,-5.7500000000,A01525,1,1552624192000
1552624208468.7500000000,24,-7.7400000000,A01525,1,1552624192000
1552624208484.3798828125,24,-9.4400000000,A01525,1,1552624192000
1552624208500.0000000000,24,-10.8700000000,A01525,1,1552624192000
1552624208515.6201171875,24,-12.1500000000,A01525,1,1552624192000
1552624208531.2500000000,24,-13.3800000000,A01525,1,1552624192000
1552624208546.8798828125,24,-14.5900000000,A01525,1,1552624192000
1552624208562.5000000000,24,-15.6100000000,A01525,1,1552624192000
1552624208578.1201171875,24,-16.1200000000,A01525,1,1552624192000
1552624208593.7500000000,24,-15.7500000000,A01525,1,1552624192000
1552624208609.3798828125,24,-14.2500000000,A01525,1,1552624192000
1552624208625.0000000000,24,-11.6300000000,A01525,1,1552624192000
1552624208640.6201171875,24,-8.2500000000,A01525,1,1552624192000
1552624208656.2500000000,24,-4.7500000000,A01525,1,1552624192000
1552624208671.8798828125,24,-1.7400000000,A01525,1,1552624192000
1552624208687.5000000000,24,0.4200000000,A01525,1,1552624192000
1552624208703.1201171875,24,1.7800000000,A01525,1,1552624192000
1552624208718.7500000000,24,2.7000000000,A01525,1,1552624192000
1552624208734.3798828125,24,3.5500000000,A01525,1,1552624192000
1552624208750.0000000000,24,4.5500000000,A01525,1,1552624192000
1552624208765.6201171875,24,5.6300000000,A01525,1,1552624192000
1552624208781.2500000000,24,6.6200000000,A01525,1,1552624192000
1552624208796.8798828125,24,7.4100000000,A01525,1,1552624192000
1552624208812.5000000000,24,7.9900000000,A01525,1,1552624192000
1552624208828.1201171875,24,8.4500000000,A01525,1,1552624192000
1552624208843.7500000000,24,8.8500000000,A01525,1,1552624192000
1552624208859.3798828125,24,9.0700000000,A01525,1,1552624192000
1552624208875.0000000000,24,8.9700000000,A01525,1,1552624192000
1552624208890.6201171875,24,8.4300000000,A01525,1,1552624192000
1552624208906.2500000000,24,7.4800000000,A01525,1,1552624192000
1552624208921.8798828125,24,6.2700000000,A01525,1,1552624192000
1552624208937.5000000000,24,5.0200000000,A01525,1,1552624192000
1552624208953.1201171875,24,3.8300000000,A01525,1,1552624192000
1552624208968.7500000000,24,2.7200000000,A01525,1,1552624192000
1552624208984.3798828125,24,1.5900000000,A01525,1,1552624192000
1552624209000.0000000000,24,0.3700000000,A01525,1,1552624192000
1552624209015.6201171875,24,-0.9700000000,A01525,1,1552624192000
1552624209031.2500000000,24,-2.4900000000,A01525,1,1552624192000
1552624209046.8798828125,24,-4.2400000000,A01525,1,1552624192000
1552624209062.5000000000,24,-6.2600000000,A01525,1,1552624192000
1552624209078.1201171875,24,-8.4900000000,A01525,1,1552624192000
1552624209093.7500000000,24,-10.7100000000,A01525,1,1552624192000
1552624209109.3798828125,24,-12.5500000000,A01525,1,1552624192000
1552624209125.0000000000,24,-13.6300000000,A01525,1,1552624192000
1552624209140.6201171875,24,-13.7600000000,A01525,1,1552624192000
1552624209156.2500000000,24,-13.0200000000,A01525,1,1552624192000
1552624209171.8798828125,24,-11.7400000000,A01525,1,1552624192000
1552624209187.5000000000,24,-10.3100000000,A01525,1,1552624192000
1552624209203.1201171875,24,-8.9300000000,A01525,1,1552624192000
1552624209218.7500000000,24,-7.5100000000,A01525,1,1552624192000
1552624209234.3798828125,24,-5.8100000000,A01525,1,1552624192000
1552624209250.0000000000,24,-3.5800000000,A01525,1,1552624192000
1552624209265.6201171875,24,-0.6900000000,A01525,1,1552624192000
1552624209281.2500000000,24,2.7300000000,A01525,1,1552624192000
1552624209296.8798828125,24,6.3800000000,A01525,1,1552624192000
1552624209312.5000000000,24,9.8800000000,A01525,1,1552624192000
1552624209328.1201171875,24,12.8500000000,A01525,1,1552624192000
1552624209343.7500000000,24,14.9300000000,A01525,1,1552624192000
1552624209359.3798828125,24,15.8700000000,A01525,1,1552624192000
1552624209375.0000000000,24,15.6600000000,A01525,1,1552624192000
1552624209390.6201171875,24,14.5100000000,A01525,1,1552624192000
1552624209406.2500000000,24,12.8900000000,A01525,1,1552624192000
1552624209421.8798828125,24,11.2800000000,A01525,1,1552624192000
1552624209437.5000000000,24,10.0500000000,A01525,1,1552624192000
1552624209453.1201171875,24,9.2600000000,A01525,1,1552624192000
1552624209468.7500000000,24,8.7400000000,A01525,1,1552624192000
1552624209484.3798828125,24,8.1700000000,A01525,1,1552624192000
1552624209500.0000000000,24,7.3100000000,A01525,1,1552624192000
1552624209515.6201171875,24,6.0900000000,A01525,1,1552624192000
1552624209531.2500000000,24,4.5900000000,A01525,1,1552624192000
1552624209546.8798828125,24,2.9900000000,A01525,1,1552624192000
1552624209562.5000000000,24,1.4100000000,A01525,1,1552624192000
1552624209578.1201171875,24,-0.0700000000,A01525,1,1552624192000
1552624209593.7500000000,24,-1.4000000000,A01525,1,1552624192000
1552624209609.3798828125,24,-2.6100000000,A01525,1,1552624192000
1552624209625.0000000000,24,-3.8300000000,A01525,1,1552624192000
1552624209640.6201171875,24,-5.2600000000,A01525,1,1552624192000
1552624209656.2500000000,24,-7.0900000000,A01525,1,1552624192000
1552624209671.8798828125,24,-9.4200000000,A01525,1,1552624192000
1552624209687.5000000000,24,-12.0600000000,A01525,1,1552624192000
1552624209703.1201171875,24,-14.5700000000,A01525,1,1552624192000
1552624209718.7500000000,24,-16.3800000000,A01525,1,1552624192000
1552624209734.3798828125,24,-17.0700000000,A01525,1,1552624192000
1552624209750.0000000000,24,-16.5800000000,A01525,1,1552624192000
1552624209765.6201171875,24,-15.2700000000,A01525,1,1552624192000
1552624209781.2500000000,24,-13.6800000000,A01525,1,1552624192000
1552624209796.8798828125,24,-12.2900000000,A01525,1,1552624192000
1552624209812.5000000000,24,-11.2200000000,A01525,1,1552624192000
1552624209828.1201171875,24,-10.2200000000,A01525,1,1552624192000
1552624209843.7500000000,24,-8.8500000000,A01525,1,1552624192000
1552624209859.3798828125,24,-6.8000000000,A01525,1,1552624192000
1552624209875.0000000000,24,-4.0700000000,A01525,1,1552624192000
1552624209890.6201171875,24,-0.9500000000,A01525,1,1552624192000
1552624209906.2500000000,24,2.1000000000,A01525,1,1552624192000
1552624209921.8798828125,24,4.7300000000,A01525,1,1552624192000
1552624209937.5000000000,24,6.7900000000,A01525,1,1552624192000
1552624209953.1201171875,24,8.3500000000,A01525,1,1552624192000
1552624209968.7500000000,24,9.5200000000,A01525,1,1552624192000
1552624209984.3798828125,24,10.3500000000,A01525,1,1552624192000
1552624210000.0000000000,24,10.8300000000,A01525,1,1552624192000
1552624210015.6201171875,24,10.8900000000,A01525,1,1552624192000
1552624210031.2500000000,24,10.5300000000,A01525,1,1552624192000
1552624210046.8798828125,24,9.8500000000,A01525,1,1552624192000
1552624210062.5000000000,24,9.0600000000,A01525,1,1552624192000
1552624210078.1201171875,24,8.4000000000,A01525,1,1552624192000
1552624210093.7500000000,24,8.0200000000,A01525,1,1552624192000
1552624210109.3798828125,24,7.9400000000,A01525,1,1552624192000
1552624210125.0000000000,24,8.0000000000,A01525,1,1552624192000
1552624210140.6201171875,24,7.9800000000,A01525,1,1552624192000
1552624210156.2500000000,24,7.5900000000,A01525,1,1552624192000
1552624210171.8798828125,24,6.6000000000,A01525,1,1552624192000
1552624210187.5000000000,24,4.9300000000,A01525,1,1552624192000
1552624210203.1201171875,24,2.6500000000,A01525,1,1552624192000
1552624210218.7500000000,24,0.0200000000,A01525,1,1552624192000
1552624210234.3798828125,24,-2.6100000000,A01525,1,1552624192000
1552624210250.0000000000,24,-4.9000000000,A01525,1,1552624192000
1552624210265.6201171875,24,-6.6000000000,A01525,1,1552624192000
1552624210281.2500000000,24,-7.7100000000,A01525,1,1552624192000
1552624210296.8798828125,24,-8.4200000000,A01525,1,1552624192000
1552624210312.5000000000,24,-9.0200000000,A01525,1,1552624192000
1552624210328.1201171875,24,-9.7100000000,A01525,1,1552624192000
1552624210343.7500000000,24,-10.4600000000,A01525,1,1552624192000
1552624210359.3798828125,24,-10.9300000000,A01525,1,1552624192000
1552624210375.0000000000,24,-10.6600000000,A01525,1,1552624192000
1552624210390.6201171875,24,-9.2900000000,A01525,1,1552624192000
1552624210406.2500000000,24,-6.8300000000,A01525,1,1552624192000
1552624210421.8798828125,24,-3.7400000000,A01525,1,1552624192000
1552624210437.5000000000,24,-0.7100000000,A01525,1,1552624192000
1552624210453.1201171875,24,1.6900000000,A01525,1,1552624192000
1552624210468.7500000000,24,3.2700000000,A01525,1,1552624192000
1552624210484.3798828125,24,4.3200000000,A01525,1,1552624192000
1552624210500.0000000000,24,5.3700000000,A01525,1,1552624192000
1552624210515.6201171875,24,6.8800000000,A01525,1,1552624192000
1552624210531.2500000000,24,8.9400000000,A01525,1,1552624192000
1552624210546.8798828125,24,11.2200000000,A01525,1,1552624192000
1552624210562.5000000000,24,13.1700000000,A01525,1,1552624192000
1552624210578.1201171875,24,14.3700000000,A01525,1,1552624192000
1552624210593.7500000000,24,14.7700000000,A01525,1,1552624192000
1552624210609.3798828125,24,14.7000000000,A01525,1,1552624192000
1552624210625.0000000000,24,14.6400000000,A01525,1,1552624192000
1552624210640.6201171875,24,14.9800000000,A01525,1,1552624192000
1552624210656.2500000000,24,15.7800000000,A01525,1,1552624192000
1552624210671.8798828125,24,16.7800000000,A01525,1,1552624192000
1552624210687.5000000000,24,17.6800000000,A01525,1,1552624192000
1552624210703.1201171875,24,18.2100000000,A01525,1,1552624192000
1552624210718.7500000000,24,18.3100000000,A01525,1,1552624192000
1552624210734.3798828125,24,17.9600000000,A01525,1,1552624192000
1552624210750.0000000000,24,17.1200000000,A01525,1,1552624192000
1552624210765.6201171875,24,15.6100000000,A01525,1,1552624192000
1552624210781.2500000000,24,13.2200000000,A01525,1,1552624192000
1552624210796.8798828125,24,9.8900000000,A01525,1,1552624192000
1552624210812.5000000000,24,5.8700000000,A01525,1,1552624192000
1552624210828.1201171875,24,1.6800000000,A01525,1,1552624192000
1552624210843.7500000000,24,-2.1100000000,A01525,1,1552624192000
1552624210859.3798828125,24,-5.1300000000,A01525,1,1552624192000
1552624210875.0000000000,24,-7.3700000000,A01525,1,1552624192000
1552624210890.6201171875,24,-9.2000000000,A01525,1,1552624192000
1552624210906.2500000000,24,-11.0900000000,A01525,1,1552624192000
1552624210921.8798828125,24,-13.3800000000,A01525,1,1552624192000
1552624210937.5000000000,24,-16.0400000000,A01525,1,1552624192000
1552624210953.1201171875,24,-18.7200000000,A01525,1,1552624192000
1552624210968.7500000000,24,-20.8700000000,A01525,1,1552624192000
1552624210984.3798828125,24,-22.0000000000,A01525,1,1552624192000
1552624211000.0000000000,24,-21.9200000000,A01525,1,1552624192000
1552624211015.6201171875,24,-20.7400000000,A01525,1,1552624192000
1552624211031.2500000000,24,-18.8600000000,A01525,1,1552624192000
1552624211046.8798828125,24,-16.7400000000,A01525,1,1552624192000
1552624211062.5000000000,24,-14.7600000000,A01525,1,1552624192000
1552624211078.1201171875,24,-13.0500000000,A01525,1,1552624192000
1552624211093.7500000000,24,-11.4900000000,A01525,1,1552624192000
1552624211109.3798828125,24,-9.8300000000,A01525,1,1552624192000
1552624211125.0000000000,24,-7.8000000000,A01525,1,1552624192000
1552624211140.6201171875,24,-5.3300000000,A01525,1,1552624192000
1552624211156.2500000000,24,-2.5800000000,A01525,1,1552624192000
1552624211171.8798828125,24,0.0400000000,A01525,1,1552624192000
1552624211187.5000000000,24,2.0900000000,A01525,1,1552624192000
1552624211203.1201171875,24,3.2800000000,A01525,1,1552624192000
1552624211218.7500000000,24,3.5700000000,A01525,1,1552624192000
1552624211234.3798828125,24,3.2300000000,A01525,1,1552624192000
1552624211250.0000000000,24,2.6600000000,A01525,1,1552624192000
1552624211265.6201171875,24,2.1900000000,A01525,1,1552624192000
1552624211281.2500000000,24,1.9800000000,A01525,1,1552624192000
1552624211296.8798828125,24,1.9400000000,A01525,1,1552624192000
1552624211312.5000000000,24,1.8800000000,A01525,1,1552624192000
1552624211328.1201171875,24,1.6200000000,A01525,1,1552624192000
1552624211343.7500000000,24,1.0900000000,A01525,1,1552624192000
1552624211359.3798828125,24,0.3700000000,A01525,1,1552624192000
1552624211375.0000000000,24,-0.3700000000,A01525,1,1552624192000
1552624211390.6201171875,24,-0.9700000000,A01525,1,1552624192000
1552624211406.2500000000,24,-1.2800000000,A01525,1,1552624192000
1552624211421.8798828125,24,-1.2500000000,A01525,1,1552624192000
1552624211437.5000000000,24,-0.8800000000,A01525,1,1552624192000
1552624211453.1201171875,24,-0.2400000000,A01525,1,1552624192000
1552624211468.7500000000,24,0.5400000000,A01525,1,1552624192000
1552624211484.3798828125,24,1.2800000000,A01525,1,1552624192000
1552624211500.0000000000,24,1.7800000000,A01525,1,1552624192000
1552624211515.6201171875,24,1.8500000000,A01525,1,1552624192000
1552624211531.2500000000,24,1.3600000000,A01525,1,1552624192000
1552624211546.8798828125,24,0.2300000000,A01525,1,1552624192000
1552624211562.5000000000,24,-1.5200000000,A01525,1,1552624192000
1552624211578.1201171875,24,-3.7500000000,A01525,1,1552624192000
1552624211593.7500000000,24,-6.1700000000,A01525,1,1552624192000
1552624211609.3798828125,24,-8.4300000000,A01525,1,1552624192000
1552624211625.0000000000,24,-10.1300000000,A01525,1,1552624192000
1552624211640.6201171875,24,-11.0100000000,A01525,1,1552624192000
1552624211656.2500000000,24,-10.9700000000,A01525,1,1552624192000
1552624211671.8798828125,24,-10.1600000000,A01525,1,1552624192000
1552624211687.5000000000,24,-8.8900000000,A01525,1,1552624192000
1552624211703.1201171875,24,-7.4700000000,A01525,1,1552624192000
1552624211718.7500000000,24,-6.0700000000,A01525,1,1552624192000
1552624211734.3798828125,24,-4.7000000000,A01525,1,1552624192000
1552624211750.0000000000,24,-3.2700000000,A01525,1,1552624192000
1552624211765.6201171875,24,-1.6400000000,A01525,1,1552624192000
1552624211781.2500000000,24,0.2300000000,A01525,1,1552624192000
1552624211796.8798828125,24,2.2200000000,A01525,1,1552624192000
1552624211812.5000000000,24,4.1200000000,A01525,1,1552624192000
1552624211828.1201171875,24,5.7200000000,A01525,1,1552624192000
1552624211843.7500000000,24,6.9000000000,A01525,1,1552624192000
1552624211859.3798828125,24,7.6600000000,A01525,1,1552624192000
1552624211875.0000000000,24,8.1500000000,A01525,1,1552624192000
1552624211890.6201171875,24,8.5600000000,A01525,1,1552624192000
1552624211906.2500000000,24,9.0200000000,A01525,1,1552624192000
1552624211921.8798828125,24,9.5600000000,A01525,1,1552624192000
1552624211937.5000000000,24,10.1300000000,A01525,1,1552624192000
1552624211953.1201171875,24,10.6100000000,A01525,1,1552624192000
1552624211968.7500000000,24,10.9300000000,A01525,1,1552624192000
1552624211984.3798828125,24,11.1300000000,A01525,1,1552624192000
1552624212000.0000000000,24,11.3000000000,A01525,1,1552624192000
1552624212015.6201171875,24,11.5400000000,A01525,1,1552624192000
1552624212031.2500000000,24,11.8200000000,A01525,1,1552624192000
1552624212046.8798828125,24,11.9300000000,A01525,1,1552624192000
1552624212062.5000000000,24,11.5600000000,A01525,1,1552624192000
1552624212078.1201171875,24,10.4700000000,A01525,1,1552624192000
1552624212093.7500000000,24,8.6400000000,A01525,1,1552624192000
1552624212109.3798828125,24,6.2900000000,A01525,1,1552624192000
1552624212125.0000000000,24,3.7900000000,A01525,1,1552624192000
1552624212140.6201171875,24,1.5100000000,A01525,1,1552624192000
1552624212156.2500000000,24,-0.3800000000,A01525,1,1552624192000
1552624212171.8798828125,24,-1.9100000000,A01525,1,1552624192000
1552624212187.5000000000,24,-3.3000000000,A01525,1,1552624192000
1552624212203.1201171875,24,-4.8200000000,A01525,1,1552624192000
1552624212218.7500000000,24,-6.6400000000,A01525,1,1552624192000
1552624212234.3798828125,24,-8.8600000000,A01525,1,1552624192000
1552624212250.0000000000,24,-11.3600000000,A01525,1,1552624192000
1552624212265.6201171875,24,-13.8600000000,A01525,1,1552624192000
1552624212281.2500000000,24,-15.9000000000,A01525,1,1552624192000
1552624212296.8798828125,24,-17.0000000000,A01525,1,1552624192000
1552624212312.5000000000,24,-16.8600000000,A01525,1,1552624192000
1552624212328.1201171875,24,-15.4800000000,A01525,1,1552624192000
1552624212343.7500000000,24,-13.1600000000,A01525,1,1552624192000
1552624212359.3798828125,24,-10.4100000000,A01525,1,1552624192000
1552624212375.0000000000,24,-7.6200000000,A01525,1,1552624192000
1552624212390.6201171875,24,-5.0200000000,A01525,1,1552624192000
1552624212406.2500000000,24,-2.6000000000,A01525,1,1552624192000
1552624212421.8798828125,24,-0.2700000000,A01525,1,1552624192000
1552624212437.5000000000,24,1.9300000000,A01525,1,1552624192000
1552624212453.1201171875,24,3.9100000000,A01525,1,1552624192000
1552624212468.7500000000,24,5.5300000000,A01525,1,1552624192000
1552624212484.3798828125,24,6.7600000000,A01525,1,1552624192000
1552624212500.0000000000,24,7.7200000000,A01525,1,1552624192000
1552624212515.6201171875,24,8.6100000000,A01525,1,1552624192000
1552624212531.2500000000,24,9.5100000000,A01525,1,1552624192000
1552624212546.8798828125,24,10.3100000000,A01525,1,1552624192000
1552624212562.5000000000,24,10.7800000000,A01525,1,1552624192000
1552624212578.1201171875,24,10.7400000000,A01525,1,1552624192000
1552624212593.7500000000,24,10.2600000000,A01525,1,1552624192000
1552624212609.3798828125,24,9.6100000000,A01525,1,1552624192000
1552624212625.0000000000,24,9.1300000000,A01525,1,1552624192000
1552624212640.6201171875,24,8.9500000000,A01525,1,1552624192000
1552624212656.2500000000,24,8.9300000000,A01525,1,1552624192000
1552624212671.8798828125,24,8.7300000000,A01525,1,1552624192000
1552624212687.5000000000,24,8.0200000000,A01525,1,1552624192000
1552624212703.1201171875,24,6.7200000000,A01525,1,1552624192000
1552624212718.7500000000,24,5.0900000000,A01525,1,1552624192000
1552624212734.3798828125,24,3.5800000000,A01525,1,1552624192000
1552624212750.0000000000,24,2.5800000000,A01525,1,1552624192000
1552624212765.6201171875,24,2.2300000000,A01525,1,1552624192000
1552624212781.2500000000,24,2.3300000000,A01525,1,1552624192000
1552624212796.8798828125,24,2.4300000000,A01525,1,1552624192000
1552624212812.5000000000,24,2.0500000000,A01525,1,1552624192000
1552624212828.1201171875,24,0.9100000000,A01525,1,1552624192000
1552624212843.7500000000,24,-0.9700000000,A01525,1,1552624192000
1552624212859.3798828125,24,-3.3600000000,A01525,1,1552624192000
1552624212875.0000000000,24,-5.8900000000,A01525,1,1552624192000
1552624212890.6201171875,24,-8.2300000000,A01525,1,1552624192000
1552624212906.2500000000,24,-10.1800000000,A01525,1,1552624192000
1552624212921.8798828125,24,-11.6600000000,A01525,1,1552624192000
1552624212937.5000000000,24,-12.6900000000,A01525,1,1552624192000
1552624212953.1201171875,24,-13.3100000000,A01525,1,1552624192000
1552624212968.7500000000,24,-13.5400000000,A01525,1,1552624192000
1552624212984.3798828125,24,-13.3800000000,A01525,1,1552624192000
1552624213000.0000000000,24,-12.7600000000,A01525,1,1552624192000
1552624213015.6201171875,24,-11.7000000000,A01525,1,1552624192000
1552624213031.2500000000,24,-10.2300000000,A01525,1,1552624192000
1552624213046.8798828125,24,-8.4500000000,A01525,1,1552624192000
1552624213062.5000000000,24,-6.4900000000,A01525,1,1552624192000
1552624213078.1201171875,24,-4.4300000000,A01525,1,1552624192000
1552624213093.7500000000,24,-2.2200000000,A01525,1,1552624192000
1552624213109.3798828125,24,0.1500000000,A01525,1,1552624192000
1552624213125.0000000000,24,2.6500000000,A01525,1,1552624192000
1552624213140.6201171875,24,5.0300000000,A01525,1,1552624192000
1552624213156.2500000000,24,6.9400000000,A01525,1,1552624192000
1552624213171.8798828125,24,7.9900000000,A01525,1,1552624192000
1552624213187.5000000000,24,7.9500000000,A01525,1,1552624192000
1552624213203.1201171875,24,6.9600000000,A01525,1,1552624192000
1552624213218.7500000000,24,5.4700000000,A01525,1,1552624192000
1552624213234.3798828125,24,4.0600000000,A01525,1,1552624192000
1552624213250.0000000000,24,3.2300000000,A01525,1,1552624192000
1552624213265.6201171875,24,3.1200000000,A01525,1,1552624192000
1552624213281.2500000000,24,3.5900000000,A01525,1,1552624192000
1552624213296.8798828125,24,4.2900000000,A01525,1,1552624192000
1552624213312.5000000000,24,4.8100000000,A01525,1,1552624192000
1552624213328.1201171875,24,4.8900000000,A01525,1,1552624192000
1552624213343.7500000000,24,4.4700000000,A01525,1,1552624192000
1552624213359.3798828125,24,3.6100000000,A01525,1,1552624192000
1552624213375.0000000000,24,2.4800000000,A01525,1,1552624192000
1552624213390.6201171875,24,1.2600000000,A01525,1,1552624192000
1552624213406.2500000000,24,0.1100000000,A01525,1,1552624192000
1552624213421.8798828125,24,-0.8900000000,A01525,1,1552624192000
1552624213437.5000000000,24,-1.7400000000,A01525,1,1552624192000
1552624213453.1201171875,24,-2.5400000000,A01525,1,1552624192000
1552624213468.7500000000,24,-3.4300000000,A01525,1,1552624192000
1552624213484.3798828125,24,-4.4900000000,A01525,1,1552624192000
1552624213500.0000000000,24,-5.7500000000,A01525,1,1552624192000
1552624213515.6201171875,24,-7.1700000000,A01525,1,1552624192000
1552624213531.2500000000,24,-8.7100000000,A01525,1,1552624192000
1552624213546.8798828125,24,-10.3400000000,A01525,1,1552624192000
1552624213562.5000000000,24,-11.9300000000,A01525,1,1552624192000
1552624213578.1201171875,24,-13.2600000000,A01525,1,1552624192000
1552624213593.7500000000,24,-14.0000000000,A01525,1,1552624192000
1552624213609.3798828125,24,-13.8100000000,A01525,1,1552624192000
1552624213625.0000000000,24,-12.5700000000,A01525,1,1552624192000
1552624213640.6201171875,24,-10.4500000000,A01525,1,1552624192000
1552624213656.2500000000,24,-7.8400000000,A01525,1,1552624192000
1552624213671.8798828125,24,-5.1900000000,A01525,1,1552624192000
1552624213687.5000000000,24,-2.7800000000,A01525,1,1552624192000
1552624213703.1201171875,24,-0.6800000000,A01525,1,1552624192000
1552624213718.7500000000,24,1.2500000000,A01525,1,1552624192000
1552624213734.3798828125,24,3.1200000000,A01525,1,1552624192000
1552624213750.0000000000,24,4.8900000000,A01525,1,1552624192000
1552624213765.6201171875,24,6.3600000000,A01525,1,1552624192000
1552624213781.2500000000,24,7.3000000000,A01525,1,1552624192000
1552624213796.8798828125,24,7.5900000000,A01525,1,1552624192000
1552624213812.5000000000,24,7.2700000000,A01525,1,1552624192000
1552624213828.1201171875,24,6.6000000000,A01525,1,1552624192000
1552624213843.7500000000,24,5.9000000000,A01525,1,1552624192000
1552624213859.3798828125,24,5.4700000000,A01525,1,1552624192000
1552624213875.0000000000,24,5.5200000000,A01525,1,1552624192000
1552624213890.6201171875,24,6.1400000000,A01525,1,1552624192000
1552624213906.2500000000,24,7.2300000000,A01525,1,1552624192000
1552624213921.8798828125,24,8.5500000000,A01525,1,1552624192000
1552624213937.5000000000,24,9.6400000000,A01525,1,1552624192000
1552624213953.1201171875,24,10.0200000000,A01525,1,1552624192000
1552624213968.7500000000,24,9.2800000000,A01525,1,1552624192000
1552624213984.3798828125,24,7.3000000000,A01525,1,1552624192000
1552624214000.0000000000,24,4.2600000000,A01525,1,1552624192000
1552624214015.6201171875,24,0.6800000000,A01525,1,1552624192000
1552624214031.2500000000,24,-2.8100000000,A01525,1,1552624192000
1552624214046.8798828125,24,-5.6900000000,A01525,1,1552624192000
1552624214062.5000000000,24,-7.7600000000,A01525,1,1552624192000
1552624214078.1201171875,24,-9.1700000000,A01525,1,1552624192000
1552624214093.7500000000,24,-10.2900000000,A01525,1,1552624192000
1552624214109.3798828125,24,-11.4700000000,A01525,1,1552624192000
1552624214125.0000000000,24,-12.8300000000,A01525,1,1552624192000
1552624214140.6201171875,24,-14.2400000000,A01525,1,1552624192000
1552624214156.2500000000,24,-15.3900000000,A01525,1,1552624192000
1552624214171.8798828125,24,-16.0400000000,A01525,1,1552624192000
1552624214187.5000000000,24,-16.0600000000,A01525,1,1552624192000
1552624214203.1201171875,24,-15.5100000000,A01525,1,1552624192000
1552624214218.7500000000,24,-14.3900000000,A01525,1,1552624192000
1552624214234.3798828125,24,-12.6600000000,A01525,1,1552624192000
1552624214250.0000000000,24,-10.2200000000,A01525,1,1552624192000
1552624214265.6201171875,24,-7.0800000000,A01525,1,1552624192000
1552624214281.2500000000,24,-3.4300000000,A01525,1,1552624192000
1552624214296.8798828125,24,0.2600000000,A01525,1,1552624192000
1552624214312.5000000000,24,3.4200000000,A01525,1,1552624192000
1552624214328.1201171875,24,5.6300000000,A01525,1,1552624192000
1552624214343.7500000000,24,6.7900000000,A01525,1,1552624192000
1552624214359.3798828125,24,7.1500000000,A01525,1,1552624192000
1552624214375.0000000000,24,7.1300000000,A01525,1,1552624192000
1552624214390.6201171875,24,7.1400000000,A01525,1,1552624192000
1552624214406.2500000000,24,7.4300000000,A01525,1,1552624192000
1552624214421.8798828125,24,8.0300000000,A01525,1,1552624192000
1552624214437.5000000000,24,8.7700000000,A01525,1,1552624192000
1552624214453.1201171875,24,9.4000000000,A01525,1,1552624192000
1552624214468.7500000000,24,9.6900000000,A01525,1,1552624192000
1552624214484.3798828125,24,9.4900000000,A01525,1,1552624192000
1552624214500.0000000000,24,8.7400000000,A01525,1,1552624192000
1552624214515.6201171875,24,7.5500000000,A01525,1,1552624192000
1552624214531.2500000000,24,6.1000000000,A01525,1,1552624192000
1552624214546.8798828125,24,4.6100000000,A01525,1,1552624192000
1552624214562.5000000000,24,3.2400000000,A01525,1,1552624192000
1552624214578.1201171875,24,2.0800000000,A01525,1,1552624192000
1552624214593.7500000000,24,1.1100000000,A01525,1,1552624192000
1552624214609.3798828125,24,0.2500000000,A01525,1,1552624192000
1552624214625.0000000000,24,-0.6500000000,A01525,1,1552624192000
1552624214640.6201171875,24,-1.7300000000,A01525,1,1552624192000
1552624214656.2500000000,24,-3.1600000000,A01525,1,1552624192000
1552624214671.8798828125,24,-5.0800000000,A01525,1,1552624192000
1552624214687.5000000000,24,-7.5400000000,A01525,1,1552624192000
1552624214703.1201171875,24,-10.3900000000,A01525,1,1552624192000
1552624214718.7500000000,24,-13.2600000000,A01525,1,1552624192000
1552624214734.3798828125,24,-15.6400000000,A01525,1,1552624192000
1552624214750.0000000000,24,-16.9800000000,A01525,1,1552624192000
1552624214765.6201171875,24,-16.9400000000,A01525,1,1552624192000
1552624214781.2500000000,24,-15.5100000000,A01525,1,1552624192000
1552624214796.8798828125,24,-13.0200000000,A01525,1,1552624192000
1552624214812.5000000000,24,-9.9800000000,A01525,1,1552624192000
1552624214828.1201171875,24,-6.9200000000,A01525,1,1552624192000
1552624214843.7500000000,24,-4.1900000000,A01525,1,1552624192000
1552624214859.3798828125,24,-1.9300000000,A01525,1,1552624192000
1552624214875.0000000000,24,-0.1300000000,A01525,1,1552624192000
1552624214890.6201171875,24,1.2800000000,A01525,1,1552624192000
1552624214906.2500000000,24,2.3800000000,A01525,1,1552624192000
1552624214921.8798828125,24,3.2500000000,A01525,1,1552624192000
1552624214937.5000000000,24,4.0000000000,A01525,1,1552624192000
1552624214953.1201171875,24,4.7700000000,A01525,1,1552624192000
1552624214968.7500000000,24,5.6500000000,A01525,1,1552624192000
1552624214984.3798828125,24,6.6500000000,A01525,1,1552624192000
1552624215000.0000000000,24,7.6500000000,A01525,1,1552624192000
1552624215015.6201171875,24,8.4400000000,A01525,1,1552624192000
1552624215031.2500000000,24,8.8400000000,A01525,1,1552624192000
1552624215046.8798828125,24,8.8100000000,A01525,1,1552624192000
1552624215062.5000000000,24,8.3700000000,A01525,1,1552624192000
1552624215078.1201171875,24,7.6800000000,A01525,1,1552624192000
1552624215093.7500000000,24,6.8600000000,A01525,1,1552624192000
1552624215109.3798828125,24,6.0600000000,A01525,1,1552624192000
1552624215125.0000000000,24,5.3000000000,A01525,1,1552624192000
1552624215140.6201171875,24,4.6500000000,A01525,1,1552624192000
1552624215156.2500000000,24,4.1200000000,A01525,1,1552624192000
1552624215171.8798828125,24,3.6800000000,A01525,1,1552624192000
1552624215187.5000000000,24,3.2200000000,A01525,1,1552624192000
1552624215203.1201171875,24,2.5400000000,A01525,1,1552624192000
1552624215218.7500000000,24,1.4500000000,A01525,1,1552624192000
1552624215234.3798828125,24,-0.1800000000,A01525,1,1552624192000
1552624215250.0000000000,24,-2.2800000000,A01525,1,1552624192000
1552624215265.6201171875,24,-4.6500000000,A01525,1,1552624192000
1552624215281.2500000000,24,-7.0300000000,A01525,1,1552624192000
1552624215296.8798828125,24,-9.2000000000,A01525,1,1552624192000
1552624215312.5000000000,24,-11.0800000000,A01525,1,1552624192000
1552624215328.1201171875,24,-12.6600000000,A01525,1,1552624192000
1552624215343.7500000000,24,-13.9100000000,A01525,1,1552624192000
1552624215359.3798828125,24,-14.7000000000,A01525,1,1552624192000
1552624215375.0000000000,24,-14.8500000000,A01525,1,1552624192000
1552624215390.6201171875,24,-14.1600000000,A01525,1,1552624192000
1552624215406.2500000000,24,-12.6000000000,A01525,1,1552624192000
1552624215421.8798828125,24,-10.3400000000,A01525,1,1552624192000
1552624215437.5000000000,24,-7.7300000000,A01525,1,1552624192000
1552624215453.1201171875,24,-5.1300000000,A01525,1,1552624192000
1552624215468.7500000000,24,-2.7100000000,A01525,1,1552624192000
1552624215484.3798828125,24,-0.4000000000,A01525,1,1552624192000
1552624215500.0000000000,24,1.9600000000,A01525,1,1552624192000
1552624215515.6201171875,24,4.5400000000,A01525,1,1552624192000
1552624215531.2500000000,24,7.2700000000,A01525,1,1552624192000
1552624215546.8798828125,24,9.9500000000,A01525,1,1552624192000
1552624215562.5000000000,24,12.2200000000,A01525,1,1552624192000
1552624215578.1201171875,24,13.8200000000,A01525,1,1552624192000
1552624215593.7500000000,24,14.6600000000,A01525,1,1552624192000
1552624215609.3798828125,24,14.8300000000,A01525,1,1552624192000
1552624215625.0000000000,24,14.5100000000,A01525,1,1552624192000
1552624215640.6201171875,24,13.9100000000,A01525,1,1552624192000
1552624215656.2500000000,24,13.1700000000,A01525,1,1552624192000
1552624215671.8798828125,24,12.4100000000,A01525,1,1552624192000
1552624215687.5000000000,24,11.6900000000,A01525,1,1552624192000
1552624215703.1201171875,24,11.0100000000,A01525,1,1552624192000
1552624215718.7500000000,24,10.3200000000,A01525,1,1552624192000
1552624215734.3798828125,24,9.5600000000,A01525,1,1552624192000
1552624215750.0000000000,24,8.6800000000,A01525,1,1552624192000
1552624215765.6201171875,24,7.7100000000,A01525,1,1552624192000
1552624215781.2500000000,24,6.7500000000,A01525,1,1552624192000
1552624215796.8798828125,24,5.8700000000,A01525,1,1552624192000
1552624215812.5000000000,24,5.0300000000,A01525,1,1552624192000
1552624215828.1201171875,24,4.0500000000,A01525,1,1552624192000
1552624215843.7500000000,24,2.7200000000,A01525,1,1552624192000
1552624215859.3798828125,24,0.9300000000,A01525,1,1552624192000
1552624215875.0000000000,24,-1.2100000000,A01525,1,1552624192000
1552624215890.6201171875,24,-3.4300000000,A01525,1,1552624192000
1552624215906.2500000000,24,-5.4800000000,A01525,1,1552624192000
1552624215921.8798828125,24,-7.3200000000,A01525,1,1552624192000
1552624215937.5000000000,24,-9.0700000000,A01525,1,1552624192000
1552624215953.1201171875,24,-10.9500000000,A01525,1,1552624192000
1552624215968.7500000000,24,-12.9600000000,A01525,1,1552624192000
1552624215984.3798828125,24,-14.8000000000,A01525,1,1552624192000
1552624216000.0000000000,24,-16.0000000000,A01525,1,1552624192000
1552624216015.6201171875,24,-16.1300000000,A01525,1,1552624192000
1552624216031.2500000000,24,-15.1600000000,A01525,1,1552624192000
1552624216046.8798828125,24,-13.3800000000,A01525,1,1552624192000
1552624216062.5000000000,24,-11.3600000000,A01525,1,1552624192000
1552624216078.1201171875,24,-9.5400000000,A01525,1,1552624192000
1552624216093.7500000000,24,-8.0200000000,A01525,1,1552624192000
1552624216109.3798828125,24,-6.5700000000,A01525,1,1552624192000
1552624216125.0000000000,24,-4.8100000000,A01525,1,1552624192000
1552624216140.6201171875,24,-2.4800000000,A01525,1,1552624192000
1552624216156.2500000000,24,0.4000000000,A01525,1,1552624192000
1552624216171.8798828125,24,3.5800000000,A01525,1,1552624192000
1552624216187.5000000000,24,6.6500000000,A01525,1,1552624192000
1552624216203.1201171875,24,9.2500000000,A01525,1,1552624192000
1552624216218.7500000000,24,11.1700000000,A01525,1,1552624192000
1552624216234.3798828125,24,12.3600000000,A01525,1,1552624192000
1552624216250.0000000000,24,12.8600000000,A01525,1,1552624192000
1552624216265.6201171875,24,12.8500000000,A01525,1,1552624192000
1552624216281.2500000000,24,12.5300000000,A01525,1,1552624192000
1552624216296.8798828125,24,12.0700000000,A01525,1,1552624192000
1552624216312.5000000000,24,11.5400000000,A01525,1,1552624192000
1552624216328.1201171875,24,10.9800000000,A01525,1,1552624192000
1552624216343.7500000000,24,10.3600000000,A01525,1,1552624192000
1552624216359.3798828125,24,9.6900000000,A01525,1,1552624192000
1552624216375.0000000000,24,9.0000000000,A01525,1,1552624192000
1552624216390.6201171875,24,8.3200000000,A01525,1,1552624192000
1552624216406.2500000000,24,7.7100000000,A01525,1,1552624192000
1552624216421.8798828125,24,7.1100000000,A01525,1,1552624192000
1552624216437.5000000000,24,6.4400000000,A01525,1,1552624192000
1552624216453.1201171875,24,5.6400000000,A01525,1,1552624192000
1552624216468.7500000000,24,4.7000000000,A01525,1,1552624192000
1552624216484.3798828125,24,3.6900000000,A01525,1,1552624192000
1552624216500.0000000000,24,2.6800000000,A01525,1,1552624192000
1552624216515.6201171875,24,1.7000000000,A01525,1,1552624192000
1552624216531.2500000000,24,0.6900000000,A01525,1,1552624192000
1552624216546.8798828125,24,-0.4400000000,A01525,1,1552624192000
1552624216562.5000000000,24,-1.8300000000,A01525,1,1552624192000
1552624216578.1201171875,24,-3.5600000000,A01525,1,1552624192000
1552624216593.7500000000,24,-5.6300000000,A01525,1,1552624192000
1552624216609.3798828125,24,-7.9400000000,A01525,1,1552624192000
1552624216625.0000000000,24,-10.3500000000,A01525,1,1552624192000
1552624216640.6201171875,24,-12.6300000000,A01525,1,1552624192000
1552624216656.2500000000,24,-14.5100000000,A01525,1,1552624192000
1552624216671.8798828125,24,-15.7600000000,A01525,1,1552624192000
1552624216687.5000000000,24,-16.2600000000,A01525,1,1552624192000
1552624216703.1201171875,24,-16.0200000000,A01525,1,1552624192000
1552624216718.7500000000,24,-15.1600000000,A01525,1,1552624192000
1552624216734.3798828125,24,-13.8100000000,A01525,1,1552624192000
1552624216750.0000000000,24,-12.0300000000,A01525,1,1552624192000
1552624216765.6201171875,24,-9.8300000000,A01525,1,1552624192000
1552624216781.2500000000,24,-7.1600000000,A01525,1,1552624192000
1552624216796.8798828125,24,-4.0600000000,A01525,1,1552624192000
1552624216812.5000000000,24,-0.7500000000,A01525,1,1552624192000
1552624216828.1201171875,24,2.3900000000,A01525,1,1552624192000
1552624216843.7500000000,24,4.9700000000,A01525,1,1552624192000
1552624216859.3798828125,24,6.7900000000,A01525,1,1552624192000
1552624216875.0000000000,24,7.8700000000,A01525,1,1552624192000
1552624216890.6201171875,24,8.4500000000,A01525,1,1552624192000
1552624216906.2500000000,24,8.8600000000,A01525,1,1552624192000
1552624216921.8798828125,24,9.2900000000,A01525,1,1552624192000
1552624216937.5000000000,24,9.7600000000,A01525,1,1552624192000
1552624216953.1201171875,24,10.0900000000,A01525,1,1552624192000
1552624216968.7500000000,24,10.1800000000,A01525,1,1552624192000
1552624216984.3798828125,24,10.0600000000,A01525,1,1552624192000
1552624217000.0000000000,24,9.8900000000,A01525,1,1552624192000
1552624217015.6201171875,24,9.9300000000,A01525,1,1552624192000
1552624217031.2500000000,24,10.2600000000,A01525,1,1552624192000
1552624217046.8798828125,24,10.7400000000,A01525,1,1552624192000
1552624217062.5000000000,24,11.0100000000,A01525,1,1552624192000
1552624217078.1201171875,24,10.7600000000,A01525,1,1552624192000
1552624217093.7500000000,24,9.9200000000,A01525,1,1552624192000
1552624217109.3798828125,24,8.7300000000,A01525,1,1552624192000
1552624217125.0000000000,24,7.6100000000,A01525,1,1552624192000
1552624217140.6201171875,24,6.9100000000,A01525,1,1552624192000
1552624217156.2500000000,24,6.6700000000,A01525,1,1552624192000
1552624217171.8798828125,24,6.6400000000,A01525,1,1552624192000
1552624217187.5000000000,24,6.3400000000,A01525,1,1552624192000
1552624217203.1201171875,24,5.4500000000,A01525,1,1552624192000
1552624217218.7500000000,24,3.8700000000,A01525,1,1552624192000
1552624217234.3798828125,24,1.8100000000,A01525,1,1552624192000
1552624217250.0000000000,24,-0.4600000000,A01525,1,1552624192000
1552624217265.6201171875,24,-2.7200000000,A01525,1,1552624192000
1552624217281.2500000000,24,-4.9400000000,A01525,1,1552624192000
1552624217296.8798828125,24,-7.1400000000,A01525,1,1552624192000
1552624217312.5000000000,24,-9.3500000000,A01525,1,1552624192000
1552624217328.1201171875,24,-11.4600000000,A01525,1,1552624192000
1552624217343.7500000000,24,-13.2500000000,A01525,1,1552624192000
1552624217359.3798828125,24,-14.4500000000,A01525,1,1552624192000
1552624217375.0000000000,24,-14.9500000000,A01525,1,1552624192000
1552624217390.6201171875,24,-14.7700000000,A01525,1,1552624192000
1552624217406.2500000000,24,-14.0500000000,A01525,1,1552624192000
1552624217421.8798828125,24,-12.9900000000,A01525,1,1552624192000
1552624217437.5000000000,24,-11.7200000000,A01525,1,1552624192000
1552624217453.1201171875,24,-10.3500000000,A01525,1,1552624192000
1552624217468.7500000000,24,-8.8800000000,A01525,1,1552624192000
1552624217484.3798828125,24,-7.2400000000,A01525,1,1552624192000
1552624217500.0000000000,24,-5.3900000000,A01525,1,1552624192000
1552624217515.6201171875,24,-3.3300000000,A01525,1,1552624192000
1552624217531.2500000000,24,-1.1200000000,A01525,1,1552624192000
1552624217546.8798828125,24,1.0200000000,A01525,1,1552624192000
1552624217562.5000000000,24,2.8500000000,A01525,1,1552624192000
1552624217578.1201171875,24,4.2000000000,A01525,1,1552624192000
1552624217593.7500000000,24,5.0800000000,A01525,1,1552624192000
1552624217609.3798828125,24,5.6800000000,A01525,1,1552624192000
1552624217625.0000000000,24,6.2900000000,A01525,1,1552624192000
1552624217640.6201171875,24,7.0900000000,A01525,1,1552624192000
1552624217656.2500000000,24,8.1200000000,A01525,1,1552624192000
1552624217671.8798828125,24,9.2100000000,A01525,1,1552624192000
1552624217687.5000000000,24,10.1300000000,A01525,1,1552624192000
1552624217703.1201171875,24,10.7100000000,A01525,1,1552624192000
1552624217718.7500000000,24,10.8800000000,A01525,1,1552624192000
1552624217734.3798828125,24,10.7600000000,A01525,1,1552624192000
1552624217750.0000000000,24,10.4200000000,A01525,1,1552624192000
1552624217765.6201171875,24,9.9700000000,A01525,1,1552624192000
1552624217781.2500000000,24,9.4100000000,A01525,1,1552624192000
1552624217796.8798828125,24,8.7800000000,A01525,1,1552624192000
1552624217812.5000000000,24,8.1100000000,A01525,1,1552624192000
1552624217828.1201171875,24,7.4600000000,A01525,1,1552624192000
1552624217843.7500000000,24,6.8700000000,A01525,1,1552624192000
1552624217859.3798828125,24,6.2900000000,A01525,1,1552624192000
1552624217875.0000000000,24,5.5800000000,A01525,1,1552624192000
1552624217890.6201171875,24,4.6400000000,A01525,1,1552624192000
1552624217906.2500000000,24,3.4500000000,A01525,1,1552624192000
1552624217921.8798828125,24,2.1100000000,A01525,1,1552624192000
1552624217937.5000000000,24,0.7900000000,A01525,1,1552624192000
1552624217953.1201171875,24,-0.3600000000,A01525,1,1552624192000
1552624217968.7500000000,24,-1.3600000000,A01525,1,1552624192000
1552624217984.3798828125,24,-2.3200000000,A01525,1,1552624192000
1552624218000.0000000000,24,-3.4600000000,A01525,1,1552624192000
1552624218015.6201171875,24,-4.8900000000,A01525,1,1552624192000
1552624218031.2500000000,24,-6.6200000000,A01525,1,1552624192000
1552624218046.8798828125,24,-8.4900000000,A01525,1,1552624192000
1552624218062.5000000000,24,-10.3000000000,A01525,1,1552624192000
1552624218078.1201171875,24,-11.8500000000,A01525,1,1552624192000
1552624218093.7500000000,24,-12.9700000000,A01525,1,1552624192000
1552624218109.3798828125,24,-13.5700000000,A01525,1,1552624192000
1552624218125.0000000000,24,-13.5400000000,A01525,1,1552624192000
1552624218140.6201171875,24,-12.8300000000,A01525,1,1552624192000
1552624218156.2500000000,24,-11.3800000000,A01525,1,1552624192000
1552624218171.8798828125,24,-9.2600000000,A01525,1,1552624192000
1552624218187.5000000000,24,-6.6600000000,A01525,1,1552624192000
1552624218203.1201171875,24,-3.8700000000,A01525,1,1552624192000
1552624218218.7500000000,24,-1.1800000000,A01525,1,1552624192000
1552624218234.3798828125,24,1.1600000000,A01525,1,1552624192000
1552624218250.0000000000,24,3.0500000000,A01525,1,1552624192000
1552624218265.6201171875,24,4.4900000000,A01525,1,1552624192000
1552624218281.2500000000,24,5.5700000000,A01525,1,1552624192000
1552624218296.8798828125,24,6.4500000000,A01525,1,1552624192000
1552624218312.5000000000,24,7.2200000000,A01525,1,1552624192000
1552624218328.1201171875,24,7.9200000000,A01525,1,1552624192000
1552624218343.7500000000,24,8.5300000000,A01525,1,1552624192000
1552624218359.3798828125,24,9.0100000000,A01525,1,1552624192000
1552624218375.0000000000,24,9.3300000000,A01525,1,1552624192000
1552624218390.6201171875,24,9.5300000000,A01525,1,1552624192000
1552624218406.2500000000,24,9.6400000000,A01525,1,1552624192000
1552624218421.8798828125,24,9.7400000000,A01525,1,1552624192000
1552624218437.5000000000,24,9.8000000000,A01525,1,1552624192000
1552624218453.1201171875,24,9.8200000000,A01525,1,1552624192000
1552624218468.7500000000,24,9.7000000000,A01525,1,1552624192000
1552624218484.3798828125,24,9.4200000000,A01525,1,1552624192000
1552624218500.0000000000,24,8.9700000000,A01525,1,1552624192000
1552624218515.6201171875,24,8.3700000000,A01525,1,1552624192000
1552624218531.2500000000,24,7.7000000000,A01525,1,1552624192000
1552624218546.8798828125,24,7.0200000000,A01525,1,1552624192000
1552624218562.5000000000,24,6.3900000000,A01525,1,1552624192000
1552624218578.1201171875,24,5.7700000000,A01525,1,1552624192000
1552624218593.7500000000,24,5.1200000000,A01525,1,1552624192000
1552624218609.3798828125,24,4.3500000000,A01525,1,1552624192000
1552624218625.0000000000,24,3.3400000000,A01525,1,1552624192000
1552624218640.6201171875,24,2.0400000000,A01525,1,1552624192000
1552624218656.2500000000,24,0.4500000000,A01525,1,1552624192000
1552624218671.8798828125,24,-1.3200000000,A01525,1,1552624192000
1552624218687.5000000000,24,-3.1700000000,A01525,1,1552624192000
1552624218703.1201171875,24,-5.0100000000,A01525,1,1552624192000
1552624218718.7500000000,24,-6.8100000000,A01525,1,1552624192000
1552624218734.3798828125,24,-8.6100000000,A01525,1,1552624192000
1552624218750.0000000000,24,-10.3700000000,A01525,1,1552624192000
1552624218765.6201171875,24,-11.9400000000,A01525,1,1552624192000
1552624218781.2500000000,24,-13.0500000000,A01525,1,1552624192000
1552624218796.8798828125,24,-13.5100000000,A01525,1,1552624192000
1552624218812.5000000000,24,-13.2800000000,A01525,1,1552624192000
1552624218828.1201171875,24,-12.5900000000,A01525,1,1552624192000
1552624218843.7500000000,24,-11.7800000000,A01525,1,1552624192000
1552624218859.3798828125,24,-11.0900000000,A01525,1,1552624192000
1552624218875.0000000000,24,-10.4800000000,A01525,1,1552624192000
1552624218890.6201171875,24,-9.6500000000,A01525,1,1552624192000
1552624218906.2500000000,24,-8.1700000000,A01525,1,1552624192000
1552624218921.8798828125,24,-5.8500000000,A01525,1,1552624192000
1552624218937.5000000000,24,-2.9000000000,A01525,1,1552624192000
1552624218953.1201171875,24,0.1500000000,A01525,1,1552624192000
1552624218968.7500000000,24,2.6600000000,A01525,1,1552624192000
1552624218984.3798828125,24,4.2400000000,A01525,1,1552624192000
1552624219000.0000000000,24,4.9200000000,A01525,1,1552624192000
1552624219015.6201171875,24,5.1100000000,A01525,1,1552624192000
1552624219031.2500000000,24,5.3000000000,A01525,1,1552624192000
1552624219046.8798828125,24,5.8000000000,A01525,1,1552624192000
1552624219062.5000000000,24,6.6300000000,A01525,1,1552624192000
1552624219078.1201171875,24,7.5600000000,A01525,1,1552624192000
1552624219093.7500000000,24,8.3300000000,A01525,1,1552624192000
1552624219109.3798828125,24,8.8300000000,A01525,1,1552624192000
1552624219125.0000000000,24,9.1100000000,A01525,1,1552624192000
1552624219140.6201171875,24,9.2800000000,A01525,1,1552624192000
1552624219156.2500000000,24,9.4100000000,A01525,1,1552624192000
1552624219171.8798828125,24,9.4700000000,A01525,1,1552624192000
1552624219187.5000000000,24,9.2900000000,A01525,1,1552624192000
1552624219203.1201171875,24,8.7600000000,A01525,1,1552624192000
1552624219218.7500000000,24,7.8000000000,A01525,1,1552624192000
1552624219234.3798828125,24,6.5200000000,A01525,1,1552624192000
1552624219250.0000000000,24,5.1200000000,A01525,1,1552624192000
1552624219265.6201171875,24,3.8500000000,A01525,1,1552624192000
1552624219281.2500000000,24,2.9200000000,A01525,1,1552624192000
1552624219296.8798828125,24,2.3700000000,A01525,1,1552624192000
1552624219312.5000000000,24,2.0900000000,A01525,1,1552624192000
1552624219328.1201171875,24,1.8100000000,A01525,1,1552624192000
1552624219343.7500000000,24,1.2100000000,A01525,1,1552624192000
1552624219359.3798828125,24,0.1300000000,A01525,1,1552624192000
1552624219375.0000000000,24,-1.3900000000,A01525,1,1552624192000
1552624219390.6201171875,24,-3.1200000000,A01525,1,1552624192000
1552624219406.2500000000,24,-4.7500000000,A01525,1,1552624192000
1552624219421.8798828125,24,-6.1200000000,A01525,1,1552624192000
1552624219437.5000000000,24,-7.3400000000,A01525,1,1552624192000
1552624219453.1201171875,24,-8.6000000000,A01525,1,1552624192000
1552624219468.7500000000,24,-10.1500000000,A01525,1,1552624192000
1552624219484.3798828125,24,-11.9700000000,A01525,1,1552624192000
1552624219500.0000000000,24,-13.8600000000,A01525,1,1552624192000
1552624219515.6201171875,24,-15.4500000000,A01525,1,1552624192000
1552624219531.2500000000,24,-16.5000000000,A01525,1,1552624192000
1552624219546.8798828125,24,-16.9500000000,A01525,1,1552624192000
1552624219562.5000000000,24,-17.0400000000,A01525,1,1552624192000
1552624219578.1201171875,24,-17.1600000000,A01525,1,1552624192000
1552624219593.7500000000,24,-17.6600000000,A01525,1,1552624192000
1552624219609.3798828125,24,-18.6800000000,A01525,1,1552624192000
1552624219625.0000000000,24,-20.0500000000,A01525,1,1552624192000
1552624219640.6201171875,24,-21.3400000000,A01525,1,1552624192000
1552624219656.2500000000,24,-22.0100000000,A01525,1,1552624192000
1552624219671.8798828125,24,-21.7000000000,A01525,1,1552624192000
1552624219687.5000000000,24,-20.4300000000,A01525,1,1552624192000
1552624219703.1201171875,24,-18.7500000000,A01525,1,1552624192000
1552624219718.7500000000,24,-17.5300000000,A01525,1,1552624192000
1552624219734.3798828125,24,-17.6200000000,A01525,1,1552624192000
1552624219750.0000000000,24,-19.5300000000,A01525,1,1552624192000
1552624219765.6201171875,24,-23.1500000000,A01525,1,1552624192000
1552624219781.2500000000,24,-27.7800000000,A01525,1,1552624192000
1552624219796.8798828125,24,-32.4000000000,A01525,1,1552624192000
1552624219812.5000000000,24,-36.1200000000,A01525,1,1552624192000
1552624219828.1201171875,24,-38.6300000000,A01525,1,1552624192000
1552624219843.7500000000,24,-40.3600000000,A01525,1,1552624192000
1552624219859.3798828125,24,-42.3300000000,A01525,1,1552624192000
1552624219875.0000000000,24,-45.7200000000,A01525,1,1552624192000
1552624219890.6201171875,24,-51.3500000000,A01525,1,1552624192000
1552624219906.2500000000,24,-59.2900000000,A01525,1,1552624192000
1552624219921.8798828125,24,-68.8100000000,A01525,1,1552624192000
1552624219937.5000000000,24,-78.7800000000,A01525,1,1552624192000
1552624219953.1201171875,24,-88.0300000000,A01525,1,1552624192000
1552624219968.7500000000,24,-95.9000000000,A01525,1,1552624192000
1552624219984.3798828125,24,-102.4600000000,A01525,1,1552624192000
1552624220000.0000000000,24,-108.4300000000,A01525,1,1552624192000
1552624220015.6201171875,24,-114.9200000000,A01525,1,1552624192000
1552624220031.2500000000,24,-123.4400000000,A01525,1,1552624192000
1552624220046.8798828125,24,-135.7800000000,A01525,1,1552624192000
1552624220062.5000000000,24,-153.9000000000,A01525,1,1552624192000
1552624220078.1201171875,24,-179.3000000000,A01525,1,1552624192000
1552624220093.7500000000,24,-211.8600000000,A01525,1,1552624192000
1552624220109.3798828125,24,-248.9800000000,A01525,1,1552624192000
1552624220125.0000000000,24,-285.3800000000,A01525,1,1552624192000
1552624220140.6201171875,24,-314.1500000000,A01525,1,1552624192000
1552624220156.2500000000,24,-328.8800000000,A01525,1,1552624192000
1552624220171.8798828125,24,-325.8300000000,A01525,1,1552624192000
1552624220187.5000000000,24,-305.4200000000,A01525,1,1552624192000
1552624220203.1201171875,24,-272.3100000000,A01525,1,1552624192000
1552624220218.7500000000,24,-233.5900000000,A01525,1,1552624192000
1552624220234.3798828125,24,-196.0400000000,A01525,1,1552624192000
1552624220250.0000000000,24,-163.6500000000,A01525,1,1552624192000
1552624220265.6201171875,24,-136.9500000000,A01525,1,1552624192000
1552624220281.2500000000,24,-114.2900000000,A01525,1,1552624192000
1552624220296.8798828125,24,-94.1900000000,A01525,1,1552624192000
1552624220312.5000000000,24,-76.9500000000,A01525,1,1552624192000
1552624220328.1201171875,24,-64.5100000000,A01525,1,1552624192000
1552624220343.7500000000,24,-58.4900000000,A01525,1,1552624192000
1552624220359.3798828125,24,-57.8700000000,A01525,1,1552624192000
1552624220375.0000000000,24,-58.2400000000,A01525,1,1552624192000
1552624220390.6201171875,24,-53.0300000000,A01525,1,1552624192000
1552624220406.2500000000,24,-36.5600000000,A01525,1,1552624192000
1552624220421.8798828125,24,-6.7400000000,A01525,1,1552624192000
1552624220437.5000000000,24,34.0700000000,A01525,1,1552624192000
1552624220453.1201171875,24,80.8800000000,A01525,1,1552624192000
1552624220468.7500000000,24,129.1200000000,A01525,1,1552624192000
1552624220484.3798828125,24,176.8500000000,A01525,1,1552624192000
1552624220500.0000000000,24,224.6700000000,A01525,1,1552624192000
1552624220515.6201171875,24,273.5600000000,A01525,1,1552624192000
1552624220531.2500000000,24,322.3700000000,A01525,1,1552624192000
1552624220546.8798828125,24,366.9100000000,A01525,1,1552624192000
1552624220562.5000000000,24,401.3700000000,A01525,1,1552624192000
1552624220578.1201171875,24,421.1100000000,A01525,1,1552624192000
1552624220593.7500000000,24,424.9900000000,A01525,1,1552624192000
1552624220609.3798828125,24,415.9600000000,A01525,1,1552624192000
1552624220625.0000000000,24,399.5100000000,A01525,1,1552624192000
1552624220640.6201171875,24,381.2900000000,A01525,1,1552624192000
1552624220656.2500000000,24,364.8400000000,A01525,1,1552624192000
1552624220671.8798828125,24,350.8100000000,A01525,1,1552624192000
1552624220687.5000000000,24,337.9100000000,A01525,1,1552624192000
1552624220703.1201171875,24,324.4100000000,A01525,1,1552624192000
1552624220718.7500000000,24,309.4400000000,A01525,1,1552624192000
1552624220734.3798828125,24,293.4600000000,A01525,1,1552624192000
1552624220750.0000000000,24,277.6000000000,A01525,1,1552624192000
1552624220765.6201171875,24,262.8200000000,A01525,1,1552624192000
1552624220781.2500000000,24,249.3300000000,A01525,1,1552624192000
1552624220796.8798828125,24,236.7600000000,A01525,1,1552624192000
1552624220812.5000000000,24,224.8500000000,A01525,1,1552624192000
1552624220828.1201171875,24,214.1400000000,A01525,1,1552624192000
1552624220843.7500000000,24,205.9600000000,A01525,1,1552624192000
1552624220859.3798828125,24,201.7700000000,A01525,1,1552624192000
