timestamp,pid,value,device_serial,device_number,entry_time
1548137663000.0000000000,4,0E-10,A01A3A,5,1548137663000
1548137663015.6201171875,4,0E-10,A01A3A,5,1548137663000
1548137663031.2500000000,4,0E-10,A01A3A,5,1548137663000
1548137663046.8798828125,4,0E-10,A01A3A,5,1548137663000
1548137663062.5000000000,4,0E-10,A01A3A,5,1548137663000
1548137663078.1201171875,4,0E-10,A01A3A,5,1548137663000
1548137663093.7500000000,4,0E-10,A01A3A,5,1548137663000
1548137663109.3798828125,4,0E-10,A01A3A,5,1548137663000
1548137663125.0000000000,4,0E-10,A01A3A,5,1548137663000
1548137663140.6201171875,4,0E-10,A01A3A,5,1548137663000
1548137663156.2500000000,4,0E-10,A01A3A,5,1548137663000
1548137663171.8798828125,4,0.0100000000,A01A3A,5,1548137663000
1548137663187.5000000000,4,0.0100000000,A01A3A,5,1548137663000
1548137663203.1201171875,4,0E-10,A01A3A,5,1548137663000
1548137663218.7500000000,4,-0.0300000000,A01A3A,5,1548137663000
1548137663234.3798828125,4,-0.0500000000,A01A3A,5,1548137663000
1548137663250.0000000000,4,-0.0500000000,A01A3A,5,1548137663000
1548137663265.6201171875,4,0E-10,A01A3A,5,1548137663000
1548137663281.2500000000,4,0.1300000000,A01A3A,5,1548137663000
1548137663296.8798828125,4,0.3600000000,A01A3A,5,1548137663000
1548137663312.5000000000,4,0.6600000000,A01A3A,5,1548137663000
1548137663328.1201171875,4,1.0100000000,A01A3A,5,1548137663000
1548137663343.7500000000,4,1.3700000000,A01A3A,5,1548137663000
1548137663359.3798828125,4,1.7200000000,A01A3A,5,1548137663000
1548137663375.0000000000,4,2.0600000000,A01A3A,5,1548137663000
1548137663390.6201171875,4,2.4000000000,A01A3A,5,1548137663000
1548137663406.2500000000,4,2.7900000000,A01A3A,5,1548137663000
1548137663421.8798828125,4,3.2400000000,A01A3A,5,1548137663000
1548137663437.5000000000,4,3.8000000000,A01A3A,5,1548137663000
1548137663453.1201171875,4,4.4200000000,A01A3A,5,1548137663000
1548137663468.7500000000,4,5.0600000000,A01A3A,5,1548137663000
1548137663484.3798828125,4,5.6600000000,A01A3A,5,1548137663000
1548137663500.0000000000,4,6.2000000000,A01A3A,5,1548137663000
1548137663515.6201171875,4,6.6800000000,A01A3A,5,1548137663000
1548137663531.2500000000,4,7.1500000000,A01A3A,5,1548137663000
1548137663546.8798828125,4,7.6800000000,A01A3A,5,1548137663000
1548137663562.5000000000,4,8.3100000000,A01A3A,5,1548137663000
1548137663578.1201171875,4,9.1400000000,A01A3A,5,1548137663000
1548137663593.7500000000,4,10.0900000000,A01A3A,5,1548137663000
1548137663609.3798828125,4,11.0400000000,A01A3A,5,1548137663000
1548137663625.0000000000,4,11.8800000000,A01A3A,5,1548137663000
1548137663640.6201171875,4,12.5600000000,A01A3A,5,1548137663000
1548137663656.2500000000,4,13.1400000000,A01A3A,5,1548137663000
1548137663671.8798828125,4,13.7600000000,A01A3A,5,1548137663000
1548137663687.5000000000,4,14.6500000000,A01A3A,5,1548137663000
1548137663703.1201171875,4,15.9600000000,A01A3A,5,1548137663000
1548137663718.7500000000,4,17.9100000000,A01A3A,5,1548137663000
1548137663734.3798828125,4,20.3200000000,A01A3A,5,1548137663000
1548137663750.0000000000,4,22.9000000000,A01A3A,5,1548137663000
1548137663765.6201171875,4,25.3800000000,A01A3A,5,1548137663000
1548137663781.2500000000,4,27.5800000000,A01A3A,5,1548137663000
1548137663796.8798828125,4,29.5700000000,A01A3A,5,1548137663000
1548137663812.5000000000,4,31.6800000000,A01A3A,5,1548137663000
1548137663828.1201171875,4,34.3200000000,A01A3A,5,1548137663000
1548137663843.7500000000,4,37.8100000000,A01A3A,5,1548137663000
1548137663859.3798828125,4,42.5400000000,A01A3A,5,1548137663000
1548137663875.0000000000,4,48.1500000000,A01A3A,5,1548137663000
1548137663890.6201171875,4,54.1000000000,A01A3A,5,1548137663000
1548137663906.2500000000,4,59.8300000000,A01A3A,5,1548137663000
1548137663921.8798828125,4,64.9700000000,A01A3A,5,1548137663000
1548137663937.5000000000,4,69.5800000000,A01A3A,5,1548137663000
1548137663953.1201171875,4,74.1400000000,A01A3A,5,1548137663000
1548137663968.7500000000,4,79.3400000000,A01A3A,5,1548137663000
1548137663984.3798828125,4,85.7100000000,A01A3A,5,1548137663000
1548137664000.0000000000,4,93.7600000000,A01A3A,5,1548137663000
1548137664015.6201171875,4,103.0000000000,A01A3A,5,1548137663000
1548137664031.2500000000,4,112.6200000000,A01A3A,5,1548137663000
1548137664046.8798828125,4,121.7300000000,A01A3A,5,1548137663000
1548137664062.5000000000,4,129.7700000000,A01A3A,5,1548137663000
1548137664078.1201171875,4,136.7500000000,A01A3A,5,1548137663000
1548137664093.7500000000,4,143.3000000000,A01A3A,5,1548137663000
1548137664109.3798828125,4,150.7500000000,A01A3A,5,1548137663000
1548137664125.0000000000,4,157.7700000000,A01A3A,5,1548137663000
1548137664140.6201171875,4,166.6400000000,A01A3A,5,1548137663000
1548137664156.2500000000,4,177.9500000000,A01A3A,5,1548137663000
1548137664171.8798828125,4,191.7900000000,A01A3A,5,1548137663000
1548137664187.5000000000,4,206.9700000000,A01A3A,5,1548137663000
1548137664203.1201171875,4,220.5700000000,A01A3A,5,1548137663000
1548137664218.7500000000,4,228.2500000000,A01A3A,5,1548137663000
1548137664234.3798828125,4,225.3600000000,A01A3A,5,1548137663000
1548137664250.0000000000,4,208.5300000000,A01A3A,5,1548137663000
1548137664265.6201171875,4,176.8700000000,A01A3A,5,1548137663000
1548137664281.2500000000,4,132.7600000000,A01A3A,5,1548137663000
1548137664296.8798828125,4,80.0500000000,A01A3A,5,1548137663000
1548137664312.5000000000,4,23.0700000000,A01A3A,5,1548137663000
1548137664328.1201171875,4,-34.9400000000,A01A3A,5,1548137663000
1548137664343.7500000000,4,-92.4400000000,A01A3A,5,1548137663000
1548137664359.3798828125,4,-149.1600000000,A01A3A,5,1548137663000
1548137664375.0000000000,4,-205.2300000000,A01A3A,5,1548137663000
1548137664390.6201171875,4,-260.3700000000,A01A3A,5,1548137663000
1548137664406.2500000000,4,-313.7400000000,A01A3A,5,1548137663000
1548137664421.8798828125,4,-363.8700000000,A01A3A,5,1548137663000
1548137664437.5000000000,4,-409.8300000000,A01A3A,5,1548137663000
1548137664453.1201171875,4,-450.9100000000,A01A3A,5,1548137663000
1548137664468.7500000000,4,-486.5000000000,A01A3A,5,1548137663000
1548137664484.3798828125,4,-515.7400000000,A01A3A,5,1548137663000
1548137664500.0000000000,4,-537.2300000000,A01A3A,5,1548137663000
1548137664515.6201171875,4,-549.2200000000,A01A3A,5,1548137663000
1548137664531.2500000000,4,-549.9600000000,A01A3A,5,1548137663000
1548137664546.8798828125,4,-538.3700000000,A01A3A,5,1548137663000
1548137664562.5000000000,4,-514.2100000000,A01A3A,5,1548137663000
1548137664578.1201171875,4,-478.6700000000,A01A3A,5,1548137663000
1548137664593.7500000000,4,-433.8800000000,A01A3A,5,1548137663000
1548137664609.3798828125,4,-382.4500000000,A01A3A,5,1548137663000
1548137664625.0000000000,4,-327.0200000000,A01A3A,5,1548137663000
1548137664640.6201171875,4,-269.8400000000,A01A3A,5,1548137663000
1548137664656.2500000000,4,-212.6300000000,A01A3A,5,1548137663000
1548137664671.8798828125,4,-156.6600000000,A01A3A,5,1548137663000
1548137664687.5000000000,4,-102.9500000000,A01A3A,5,1548137663000
1548137664703.1201171875,4,-52.3700000000,A01A3A,5,1548137663000
1548137664718.7500000000,4,-5.9000000000,A01A3A,5,1548137663000
1548137664734.3798828125,4,35.5800000000,A01A3A,5,1548137663000
1548137664750.0000000000,4,71.4300000000,A01A3A,5,1548137663000
1548137664765.6201171875,4,101.3500000000,A01A3A,5,1548137663000
1548137664781.2500000000,4,125.5000000000,A01A3A,5,1548137663000
1548137664796.8798828125,4,144.3800000000,A01A3A,5,1548137663000
1548137664812.5000000000,4,158.6900000000,A01A3A,5,1548137663000
1548137664828.1201171875,4,169.1500000000,A01A3A,5,1548137663000
1548137664843.7500000000,4,176.3700000000,A01A3A,5,1548137663000
1548137664859.3798828125,4,180.7500000000,A01A3A,5,1548137663000
1548137664875.0000000000,4,182.5700000000,A01A3A,5,1548137663000
1548137664890.6201171875,4,182.0700000000,A01A3A,5,1548137663000
1548137664906.2500000000,4,179.5100000000,A01A3A,5,1548137663000
1548137664921.8798828125,4,175.2300000000,A01A3A,5,1548137663000
1548137664937.5000000000,4,169.6500000000,A01A3A,5,1548137663000
1548137664953.1201171875,4,163.1800000000,A01A3A,5,1548137663000
1548137664968.7500000000,4,156.1500000000,A01A3A,5,1548137663000
1548137664984.3798828125,4,148.8100000000,A01A3A,5,1548137663000
1548137665000.0000000000,4,141.3000000000,A01A3A,5,1548137663000
1548137665015.6201171875,4,133.6900000000,A01A3A,5,1548137663000
1548137665031.2500000000,4,126.0200000000,A01A3A,5,1548137663000
1548137665046.8798828125,4,118.3300000000,A01A3A,5,1548137663000
1548137665062.5000000000,4,110.6900000000,A01A3A,5,1548137663000
1548137665078.1201171875,4,103.1600000000,A01A3A,5,1548137663000
1548137665093.7500000000,4,95.8000000000,A01A3A,5,1548137663000
1548137665109.3798828125,4,88.6800000000,A01A3A,5,1548137663000
1548137665125.0000000000,4,81.8300000000,A01A3A,5,1548137663000
1548137665140.6201171875,4,75.2500000000,A01A3A,5,1548137663000
1548137665156.2500000000,4,68.9500000000,A01A3A,5,1548137663000
1548137665171.8798828125,4,62.9500000000,A01A3A,5,1548137663000
1548137665187.5000000000,4,57.2500000000,A01A3A,5,1548137663000
1548137665203.1201171875,4,51.8600000000,A01A3A,5,1548137663000
1548137665218.7500000000,4,46.7800000000,A01A3A,5,1548137663000
1548137665234.3798828125,4,42.0300000000,A01A3A,5,1548137663000
1548137665250.0000000000,4,37.5900000000,A01A3A,5,1548137663000
1548137665265.6201171875,4,33.4500000000,A01A3A,5,1548137663000
1548137665281.2500000000,4,29.6100000000,A01A3A,5,1548137663000
1548137665296.8798828125,4,26.0700000000,A01A3A,5,1548137663000
1548137665312.5000000000,4,22.8100000000,A01A3A,5,1548137663000
1548137665328.1201171875,4,19.8300000000,A01A3A,5,1548137663000
1548137665343.7500000000,4,17.1100000000,A01A3A,5,1548137663000
1548137665359.3798828125,4,14.6700000000,A01A3A,5,1548137663000
1548137665375.0000000000,4,12.4800000000,A01A3A,5,1548137663000
1548137665390.6201171875,4,10.5400000000,A01A3A,5,1548137663000
1548137665406.2500000000,4,8.8300000000,A01A3A,5,1548137663000
1548137665421.8798828125,4,7.3500000000,A01A3A,5,1548137663000
1548137665437.5000000000,4,6.0700000000,A01A3A,5,1548137663000
1548137665453.1201171875,4,4.9700000000,A01A3A,5,1548137663000
1548137665468.7500000000,4,4.0500000000,A01A3A,5,1548137663000
1548137665484.3798828125,4,3.2700000000,A01A3A,5,1548137663000
1548137665500.0000000000,4,2.6200000000,A01A3A,5,1548137663000
1548137665515.6201171875,4,2.0900000000,A01A3A,5,1548137663000
1548137665531.2500000000,4,1.6500000000,A01A3A,5,1548137663000
1548137665546.8798828125,4,1.3000000000,A01A3A,5,1548137663000
1548137665562.5000000000,4,1.0100000000,A01A3A,5,1548137663000
1548137665578.1201171875,4,0.7900000000,A01A3A,5,1548137663000
1548137665593.7500000000,4,0.6100000000,A01A3A,5,1548137663000
1548137665609.3798828125,4,0.4800000000,A01A3A,5,1548137663000
1548137665625.0000000000,4,0.3800000000,A01A3A,5,1548137663000
1548137665640.6201171875,4,0.3000000000,A01A3A,5,1548137663000
1548137665656.2500000000,4,0.2500000000,A01A3A,5,1548137663000
1548137665671.8798828125,4,0.2200000000,A01A3A,5,1548137663000
1548137665687.5000000000,4,0.2000000000,A01A3A,5,1548137663000
1548137665703.1201171875,4,0.2000000000,A01A3A,5,1548137663000
1548137665718.7500000000,4,0.2000000000,A01A3A,5,1548137663000
1548137665734.3798828125,4,0.2200000000,A01A3A,5,1548137663000
1548137665750.0000000000,4,0.2500000000,A01A3A,5,1548137663000
1548137665765.6201171875,4,0.2800000000,A01A3A,5,1548137663000
1548137665781.2500000000,4,0.3100000000,A01A3A,5,1548137663000
1548137665796.8798828125,4,0.3500000000,A01A3A,5,1548137663000
1548137665812.5000000000,4,0.3900000000,A01A3A,5,1548137663000
1548137665828.1201171875,4,0.4300000000,A01A3A,5,1548137663000
1548137665843.7500000000,4,0.4800000000,A01A3A,5,1548137663000
1548137665859.3798828125,4,0.5200000000,A01A3A,5,1548137663000
1548137665875.0000000000,4,0.5700000000,A01A3A,5,1548137663000
1548137665890.6201171875,4,0.6200000000,A01A3A,5,1548137663000
1548137665906.2500000000,4,0.6700000000,A01A3A,5,1548137663000
1548137665921.8798828125,4,0.7300000000,A01A3A,5,1548137663000
1548137665937.5000000000,4,0.7900000000,A01A3A,5,1548137663000
1548137665953.1201171875,4,0.8600000000,A01A3A,5,1548137663000
1548137665968.7500000000,4,0.9300000000,A01A3A,5,1548137663000
1548137665984.3798828125,4,1.0100000000,A01A3A,5,1548137663000
1548137666000.0000000000,4,1.1000000000,A01A3A,5,1548137663000
1548137666015.6201171875,4,1.2000000000,A01A3A,5,1548137663000
1548137666031.2500000000,4,1.3100000000,A01A3A,5,1548137663000
1548137666046.8798828125,4,1.4400000000,A01A3A,5,1548137663000
1548137666062.5000000000,4,1.5800000000,A01A3A,5,1548137663000
1548137666078.1201171875,4,1.7400000000,A01A3A,5,1548137663000
1548137666093.7500000000,4,1.9200000000,A01A3A,5,1548137663000
1548137666109.3798828125,4,2.1100000000,A01A3A,5,1548137663000
1548137666125.0000000000,4,2.3300000000,A01A3A,5,1548137663000
1548137666140.6201171875,4,2.5700000000,A01A3A,5,1548137663000
1548137666156.2500000000,4,2.8400000000,A01A3A,5,1548137663000
1548137666171.8798828125,4,3.1300000000,A01A3A,5,1548137663000
1548137666187.5000000000,4,3.4600000000,A01A3A,5,1548137663000
1548137666203.1201171875,4,3.8100000000,A01A3A,5,1548137663000
1548137666218.7500000000,4,4.2000000000,A01A3A,5,1548137663000
1548137666234.3798828125,4,4.6200000000,A01A3A,5,1548137663000
1548137666250.0000000000,4,5.0800000000,A01A3A,5,1548137663000
1548137666265.6201171875,4,5.5700000000,A01A3A,5,1548137663000
1548137666281.2500000000,4,6.1000000000,A01A3A,5,1548137663000
1548137666296.8798828125,4,6.6700000000,A01A3A,5,1548137663000
1548137666312.5000000000,4,7.2900000000,A01A3A,5,1548137663000
1548137666328.1201171875,4,7.9400000000,A01A3A,5,1548137663000
1548137666343.7500000000,4,8.6400000000,A01A3A,5,1548137663000
1548137666359.3798828125,4,9.3800000000,A01A3A,5,1548137663000
1548137666375.0000000000,4,10.1600000000,A01A3A,5,1548137663000
1548137666390.6201171875,4,10.9900000000,A01A3A,5,1548137663000
1548137666406.2500000000,4,11.8600000000,A01A3A,5,1548137663000
1548137666421.8798828125,4,12.7800000000,A01A3A,5,1548137663000
1548137666437.5000000000,4,13.7500000000,A01A3A,5,1548137663000
1548137666453.1201171875,4,14.7700000000,A01A3A,5,1548137663000
1548137666468.7500000000,4,15.8600000000,A01A3A,5,1548137663000
1548137666484.3798828125,4,17.0100000000,A01A3A,5,1548137663000
1548137666500.0000000000,4,18.2200000000,A01A3A,5,1548137663000
1548137666515.6201171875,4,19.4700000000,A01A3A,5,1548137663000
1548137666531.2500000000,4,20.7300000000,A01A3A,5,1548137663000
1548137666546.8798828125,4,21.9200000000,A01A3A,5,1548137663000
1548137666562.5000000000,4,23.0000000000,A01A3A,5,1548137663000
1548137666578.1201171875,4,23.8500000000,A01A3A,5,1548137663000
1548137666593.7500000000,4,24.3500000000,A01A3A,5,1548137663000
1548137666609.3798828125,4,24.3900000000,A01A3A,5,1548137663000
1548137666625.0000000000,4,23.8400000000,A01A3A,5,1548137663000
1548137666640.6201171875,4,22.6400000000,A01A3A,5,1548137663000
1548137666656.2500000000,4,20.7100000000,A01A3A,5,1548137663000
1548137666671.8798828125,4,18.0900000000,A01A3A,5,1548137663000
1548137666687.5000000000,4,14.8100000000,A01A3A,5,1548137663000
1548137666703.1201171875,4,10.9600000000,A01A3A,5,1548137663000
1548137666718.7500000000,4,6.7400000000,A01A3A,5,1548137663000
1548137666734.3798828125,4,2.3200000000,A01A3A,5,1548137663000
1548137666750.0000000000,4,-2.0800000000,A01A3A,5,1548137663000
1548137666765.6201171875,4,-6.2300000000,A01A3A,5,1548137663000
1548137666781.2500000000,4,-9.9500000000,A01A3A,5,1548137663000
1548137666796.8798828125,4,-13.0800000000,A01A3A,5,1548137663000
1548137666812.5000000000,4,-15.4900000000,A01A3A,5,1548137663000
1548137666828.1201171875,4,-17.1300000000,A01A3A,5,1548137663000
1548137666843.7500000000,4,-18.0100000000,A01A3A,5,1548137663000
1548137666859.3798828125,4,-18.1600000000,A01A3A,5,1548137663000
1548137666875.0000000000,4,-17.6800000000,A01A3A,5,1548137663000
1548137666890.6201171875,4,-16.7100000000,A01A3A,5,1548137663000
1548137666906.2500000000,4,-15.3500000000,A01A3A,5,1548137663000
1548137666921.8798828125,4,-13.7400000000,A01A3A,5,1548137663000
1548137666937.5000000000,4,-11.9800000000,A01A3A,5,1548137663000
1548137666953.1201171875,4,-10.1400000000,A01A3A,5,1548137663000
1548137666968.7500000000,4,-8.2800000000,A01A3A,5,1548137663000
1548137666984.3798828125,4,-6.4500000000,A01A3A,5,1548137663000
1548137667000.0000000000,4,-4.6400000000,A01A3A,5,1548137663000
1548137667015.6201171875,4,-2.9200000000,A01A3A,5,1548137663000
1548137667031.2500000000,4,-1.3100000000,A01A3A,5,1548137663000
1548137667046.8798828125,4,0.2200000000,A01A3A,5,1548137663000
1548137667062.5000000000,4,1.7000000000,A01A3A,5,1548137663000
1548137667078.1201171875,4,3.2200000000,A01A3A,5,1548137663000
1548137667093.7500000000,4,4.8400000000,A01A3A,5,1548137663000
1548137667109.3798828125,4,6.6000000000,A01A3A,5,1548137663000
1548137667125.0000000000,4,8.5200000000,A01A3A,5,1548137663000
1548137667140.6201171875,4,10.6400000000,A01A3A,5,1548137663000
1548137667156.2500000000,4,12.8200000000,A01A3A,5,1548137663000
1548137667171.8798828125,4,14.9600000000,A01A3A,5,1548137663000
1548137667187.5000000000,4,17.0600000000,A01A3A,5,1548137663000
1548137667203.1201171875,4,19.1100000000,A01A3A,5,1548137663000
1548137667218.7500000000,4,21.1800000000,A01A3A,5,1548137663000
1548137667234.3798828125,4,23.3400000000,A01A3A,5,1548137663000
1548137667250.0000000000,4,25.6600000000,A01A3A,5,1548137663000
1548137667265.6201171875,4,28.2000000000,A01A3A,5,1548137663000
1548137667281.2500000000,4,31.0700000000,A01A3A,5,1548137663000
1548137667296.8798828125,4,34.0300000000,A01A3A,5,1548137663000
1548137667312.5000000000,4,36.9900000000,A01A3A,5,1548137663000
1548137667328.1201171875,4,39.9600000000,A01A3A,5,1548137663000
1548137667343.7500000000,4,43.0300000000,A01A3A,5,1548137663000
1548137667359.3798828125,4,46.3700000000,A01A3A,5,1548137663000
1548137667375.0000000000,4,50.1200000000,A01A3A,5,1548137663000
1548137667390.6201171875,4,54.3600000000,A01A3A,5,1548137663000
1548137667406.2500000000,4,59.1300000000,A01A3A,5,1548137663000
1548137667421.8798828125,4,64.4100000000,A01A3A,5,1548137663000
1548137667437.5000000000,4,69.6800000000,A01A3A,5,1548137663000
1548137667453.1201171875,4,74.6000000000,A01A3A,5,1548137663000
1548137667468.7500000000,4,79.1000000000,A01A3A,5,1548137663000
1548137667484.3798828125,4,83.2800000000,A01A3A,5,1548137663000
1548137667500.0000000000,4,87.4200000000,A01A3A,5,1548137663000
1548137667515.6201171875,4,91.7800000000,A01A3A,5,1548137663000
1548137667531.2500000000,4,96.4500000000,A01A3A,5,1548137663000
1548137667546.8798828125,4,101.4000000000,A01A3A,5,1548137663000
1548137667562.5000000000,4,106.4300000000,A01A3A,5,1548137663000
1548137667578.1201171875,4,110.6300000000,A01A3A,5,1548137663000
1548137667593.7500000000,4,113.3700000000,A01A3A,5,1548137663000
1548137667609.3798828125,4,114.4200000000,A01A3A,5,1548137663000
1548137667625.0000000000,4,113.8000000000,A01A3A,5,1548137663000
1548137667640.6201171875,4,111.6800000000,A01A3A,5,1548137663000
1548137667656.2500000000,4,107.9600000000,A01A3A,5,1548137663000
1548137667671.8798828125,4,101.8900000000,A01A3A,5,1548137663000
1548137667687.5000000000,4,91.6500000000,A01A3A,5,1548137663000
1548137667703.1201171875,4,79.3900000000,A01A3A,5,1548137663000
1548137667718.7500000000,4,65.0500000000,A01A3A,5,1548137663000
1548137667734.3798828125,4,48.4800000000,A01A3A,5,1548137663000
1548137667750.0000000000,4,29.9100000000,A01A3A,5,1548137663000
1548137667765.6201171875,4,9.9400000000,A01A3A,5,1548137663000
1548137667781.2500000000,4,-10.5600000000,A01A3A,5,1548137663000
1548137667796.8798828125,4,-30.7400000000,A01A3A,5,1548137663000
1548137667812.5000000000,4,-50.1400000000,A01A3A,5,1548137663000
1548137667828.1201171875,4,-68.6800000000,A01A3A,5,1548137663000
1548137667843.7500000000,4,-86.5900000000,A01A3A,5,1548137663000
1548137667859.3798828125,4,-105.0300000000,A01A3A,5,1548137663000
1548137667875.0000000000,4,-125.0600000000,A01A3A,5,1548137663000
1548137667890.6201171875,4,-147.6300000000,A01A3A,5,1548137663000
1548137667906.2500000000,4,-173.3100000000,A01A3A,5,1548137663000
1548137667921.8798828125,4,-201.8100000000,A01A3A,5,1548137663000
1548137667937.5000000000,4,-231.4200000000,A01A3A,5,1548137663000
1548137667953.1201171875,4,-258.9000000000,A01A3A,5,1548137663000
1548137667968.7500000000,4,-279.9500000000,A01A3A,5,1548137663000
1548137667984.3798828125,4,-290.4800000000,A01A3A,5,1548137663000
1548137668000.0000000000,4,-288.6400000000,A01A3A,5,1548137663000
1548137668015.6201171875,4,-275.0700000000,A01A3A,5,1548137663000
1548137668031.2500000000,4,-252.7800000000,A01A3A,5,1548137663000
1548137668046.8798828125,4,-226.0500000000,A01A3A,5,1548137663000
1548137668062.5000000000,4,-198.8800000000,A01A3A,5,1548137663000
1548137668078.1201171875,4,-173.7500000000,A01A3A,5,1548137663000
1548137668093.7500000000,4,-151.3800000000,A01A3A,5,1548137663000
1548137668109.3798828125,4,-131.3200000000,A01A3A,5,1548137663000
1548137668125.0000000000,4,-112.8200000000,A01A3A,5,1548137663000
1548137668140.6201171875,4,-95.8700000000,A01A3A,5,1548137663000
1548137668156.2500000000,4,-80.8300000000,A01A3A,5,1548137663000
1548137668171.8798828125,4,-68.0200000000,A01A3A,5,1548137663000
1548137668187.5000000000,4,-57.3200000000,A01A3A,5,1548137663000
1548137668203.1201171875,4,-48.0800000000,A01A3A,5,1548137663000
1548137668218.7500000000,4,-39.3800000000,A01A3A,5,1548137663000
1548137668234.3798828125,4,-30.5700000000,A01A3A,5,1548137663000
1548137668250.0000000000,4,-21.5700000000,A01A3A,5,1548137663000
1548137668265.6201171875,4,-12.8100000000,A01A3A,5,1548137663000
1548137668281.2500000000,4,-5.2100000000,A01A3A,5,1548137663000
1548137668296.8798828125,4,0.6700000000,A01A3A,5,1548137663000
1548137668312.5000000000,4,4.8200000000,A01A3A,5,1548137663000
1548137668328.1201171875,4,7.8200000000,A01A3A,5,1548137663000
1548137668343.7500000000,4,10.5700000000,A01A3A,5,1548137663000
1548137668359.3798828125,4,13.7400000000,A01A3A,5,1548137663000
1548137668375.0000000000,4,17.5200000000,A01A3A,5,1548137663000
1548137668390.6201171875,4,21.5100000000,A01A3A,5,1548137663000
1548137668406.2500000000,4,25.0100000000,A01A3A,5,1548137663000
1548137668421.8798828125,4,27.3300000000,A01A3A,5,1548137663000
1548137668437.5000000000,4,28.1700000000,A01A3A,5,1548137663000
1548137668453.1201171875,4,27.7800000000,A01A3A,5,1548137663000
1548137668468.7500000000,4,26.7000000000,A01A3A,5,1548137663000
1548137668484.3798828125,4,25.6200000000,A01A3A,5,1548137663000
1548137668500.0000000000,4,25.0100000000,A01A3A,5,1548137663000
1548137668515.6201171875,4,25.0900000000,A01A3A,5,1548137663000
1548137668531.2500000000,4,25.7400000000,A01A3A,5,1548137663000
1548137668546.8798828125,4,26.6900000000,A01A3A,5,1548137663000
1548137668562.5000000000,4,27.6100000000,A01A3A,5,1548137663000
1548137668578.1201171875,4,28.2200000000,A01A3A,5,1548137663000
1548137668593.7500000000,4,28.3300000000,A01A3A,5,1548137663000
1548137668609.3798828125,4,27.9100000000,A01A3A,5,1548137663000
1548137668625.0000000000,4,27.0000000000,A01A3A,5,1548137663000
1548137668640.6201171875,4,25.7300000000,A01A3A,5,1548137663000
1548137668656.2500000000,4,24.2200000000,A01A3A,5,1548137663000
1548137668671.8798828125,4,22.5600000000,A01A3A,5,1548137663000
1548137668687.5000000000,4,20.8300000000,A01A3A,5,1548137663000
1548137668703.1201171875,4,19.1000000000,A01A3A,5,1548137663000
1548137668718.7500000000,4,17.4700000000,A01A3A,5,1548137663000
1548137668734.3798828125,4,16.0900000000,A01A3A,5,1548137663000
1548137668750.0000000000,4,15.1400000000,A01A3A,5,1548137663000
1548137668765.6201171875,4,14.7500000000,A01A3A,5,1548137663000
1548137668781.2500000000,4,14.8800000000,A01A3A,5,1548137663000
1548137668796.8798828125,4,15.3600000000,A01A3A,5,1548137663000
1548137668812.5000000000,4,15.8600000000,A01A3A,5,1548137663000
1548137668828.1201171875,4,16.1000000000,A01A3A,5,1548137663000
1548137668843.7500000000,4,15.9100000000,A01A3A,5,1548137663000
1548137668859.3798828125,4,15.3500000000,A01A3A,5,1548137663000
1548137668875.0000000000,4,14.6000000000,A01A3A,5,1548137663000
1548137668890.6201171875,4,13.8900000000,A01A3A,5,1548137663000
1548137668906.2500000000,4,13.3500000000,A01A3A,5,1548137663000
1548137668921.8798828125,4,13.0000000000,A01A3A,5,1548137663000
1548137668937.5000000000,4,12.7700000000,A01A3A,5,1548137663000
1548137668953.1201171875,4,12.5900000000,A01A3A,5,1548137663000
1548137668968.7500000000,4,12.5100000000,A01A3A,5,1548137663000
1548137668984.3798828125,4,12.6200000000,A01A3A,5,1548137663000
1548137669000.0000000000,4,12.9400000000,A01A3A,5,1548137663000
1548137669015.6201171875,4,13.4400000000,A01A3A,5,1548137663000
1548137669031.2500000000,4,13.9200000000,A01A3A,5,1548137663000
1548137669046.8798828125,4,14.1800000000,A01A3A,5,1548137663000
1548137669062.5000000000,4,14.1300000000,A01A3A,5,1548137663000
1548137669078.1201171875,4,13.8200000000,A01A3A,5,1548137663000
1548137669093.7500000000,4,13.4100000000,A01A3A,5,1548137663000
1548137669109.3798828125,4,13.0900000000,A01A3A,5,1548137663000
1548137669125.0000000000,4,12.9800000000,A01A3A,5,1548137663000
1548137669140.6201171875,4,13.0700000000,A01A3A,5,1548137663000
1548137669156.2500000000,4,13.2700000000,A01A3A,5,1548137663000
1548137669171.8798828125,4,13.5500000000,A01A3A,5,1548137663000
1548137669187.5000000000,4,13.9100000000,A01A3A,5,1548137663000
1548137669203.1201171875,4,14.4700000000,A01A3A,5,1548137663000
1548137669218.7500000000,4,15.3300000000,A01A3A,5,1548137663000
1548137669234.3798828125,4,16.5100000000,A01A3A,5,1548137663000
1548137669250.0000000000,4,17.9300000000,A01A3A,5,1548137663000
1548137669265.6201171875,4,19.4300000000,A01A3A,5,1548137663000
1548137669281.2500000000,4,20.8600000000,A01A3A,5,1548137663000
1548137669296.8798828125,4,22.1200000000,A01A3A,5,1548137663000
1548137669312.5000000000,4,23.2200000000,A01A3A,5,1548137663000
1548137669328.1201171875,4,24.2700000000,A01A3A,5,1548137663000
1548137669343.7500000000,4,25.4200000000,A01A3A,5,1548137663000
1548137669359.3798828125,4,26.8300000000,A01A3A,5,1548137663000
1548137669375.0000000000,4,28.5700000000,A01A3A,5,1548137663000
1548137669390.6201171875,4,30.6100000000,A01A3A,5,1548137663000
1548137669406.2500000000,4,32.8400000000,A01A3A,5,1548137663000
1548137669421.8798828125,4,35.0400000000,A01A3A,5,1548137663000
1548137669437.5000000000,4,36.8600000000,A01A3A,5,1548137663000
1548137669453.1201171875,4,37.8800000000,A01A3A,5,1548137663000
1548137669468.7500000000,4,37.5700000000,A01A3A,5,1548137663000
1548137669484.3798828125,4,35.3600000000,A01A3A,5,1548137663000
1548137669500.0000000000,4,30.8300000000,A01A3A,5,1548137663000
1548137669515.6201171875,4,23.8800000000,A01A3A,5,1548137663000
1548137669531.2500000000,4,14.8900000000,A01A3A,5,1548137663000
1548137669546.8798828125,4,4.7200000000,A01A3A,5,1548137663000
1548137669562.5000000000,4,-5.4100000000,A01A3A,5,1548137663000
1548137669578.1201171875,4,-14.2800000000,A01A3A,5,1548137663000
1548137669593.7500000000,4,-20.9300000000,A01A3A,5,1548137663000
1548137669609.3798828125,4,-24.9700000000,A01A3A,5,1548137663000
1548137669625.0000000000,4,-26.5500000000,A01A3A,5,1548137663000
1548137669640.6201171875,4,-26.2500000000,A01A3A,5,1548137663000
1548137669656.2500000000,4,-24.8500000000,A01A3A,5,1548137663000
1548137669671.8798828125,4,-23.0000000000,A01A3A,5,1548137663000
1548137669687.5000000000,4,-21.1100000000,A01A3A,5,1548137663000
1548137669703.1201171875,4,-19.3500000000,A01A3A,5,1548137663000
1548137669718.7500000000,4,-17.7000000000,A01A3A,5,1548137663000
1548137669734.3798828125,4,-16.1500000000,A01A3A,5,1548137663000
1548137669750.0000000000,4,-14.7300000000,A01A3A,5,1548137663000
1548137669765.6201171875,4,-13.5300000000,A01A3A,5,1548137663000
1548137669781.2500000000,4,-12.5900000000,A01A3A,5,1548137663000
1548137669796.8798828125,4,-11.8500000000,A01A3A,5,1548137663000
1548137669812.5000000000,4,-11.1600000000,A01A3A,5,1548137663000
1548137669828.1201171875,4,-10.3400000000,A01A3A,5,1548137663000
1548137669843.7500000000,4,-9.3400000000,A01A3A,5,1548137663000
1548137669859.3798828125,4,-8.2100000000,A01A3A,5,1548137663000
1548137669875.0000000000,4,-7.1000000000,A01A3A,5,1548137663000
1548137669890.6201171875,4,-6.1200000000,A01A3A,5,1548137663000
1548137669906.2500000000,4,-5.2100000000,A01A3A,5,1548137663000
1548137669921.8798828125,4,-4.2000000000,A01A3A,5,1548137663000
1548137669937.5000000000,4,-2.8600000000,A01A3A,5,1548137663000
1548137669953.1201171875,4,-1.1300000000,A01A3A,5,1548137663000
1548137669968.7500000000,4,0.8900000000,A01A3A,5,1548137663000
1548137669984.3798828125,4,2.9300000000,A01A3A,5,1548137663000
1548137670000.0000000000,4,4.6700000000,A01A3A,5,1548137663000
1548137670015.6201171875,4,5.9000000000,A01A3A,5,1548137663000
1548137670031.2500000000,4,6.5300000000,A01A3A,5,1548137663000
1548137670046.8798828125,4,6.5700000000,A01A3A,5,1548137663000
1548137670062.5000000000,4,6.0900000000,A01A3A,5,1548137663000
1548137670078.1201171875,4,5.1300000000,A01A3A,5,1548137663000
1548137670093.7500000000,4,3.7400000000,A01A3A,5,1548137663000
1548137670109.3798828125,4,2.0300000000,A01A3A,5,1548137663000
1548137670125.0000000000,4,0.1900000000,A01A3A,5,1548137663000
1548137670140.6201171875,4,-1.5900000000,A01A3A,5,1548137663000
1548137670156.2500000000,4,-3.1600000000,A01A3A,5,1548137663000
1548137670171.8798828125,4,-4.5100000000,A01A3A,5,1548137663000
1548137670187.5000000000,4,-5.6600000000,A01A3A,5,1548137663000
1548137670203.1201171875,4,-6.7000000000,A01A3A,5,1548137663000
1548137670218.7500000000,4,-7.6300000000,A01A3A,5,1548137663000
1548137670234.3798828125,4,-8.4800000000,A01A3A,5,1548137663000
1548137670250.0000000000,4,-9.2600000000,A01A3A,5,1548137663000
1548137670265.6201171875,4,-10.1100000000,A01A3A,5,1548137663000
1548137670281.2500000000,4,-11.2400000000,A01A3A,5,1548137663000
1548137670296.8798828125,4,-12.8500000000,A01A3A,5,1548137663000
1548137670312.5000000000,4,-15.0700000000,A01A3A,5,1548137663000
1548137670328.1201171875,4,-17.7900000000,A01A3A,5,1548137663000
1548137670343.7500000000,4,-20.7000000000,A01A3A,5,1548137663000
1548137670359.3798828125,4,-23.4400000000,A01A3A,5,1548137663000
1548137670375.0000000000,4,-25.6900000000,A01A3A,5,1548137663000
1548137670390.6201171875,4,-27.2800000000,A01A3A,5,1548137663000
1548137670406.2500000000,4,-28.2700000000,A01A3A,5,1548137663000
1548137670421.8798828125,4,-28.9400000000,A01A3A,5,1548137663000
1548137670437.5000000000,4,-29.6300000000,A01A3A,5,1548137663000
1548137670453.1201171875,4,-30.6900000000,A01A3A,5,1548137663000
1548137670468.7500000000,4,-32.3100000000,A01A3A,5,1548137663000
1548137670484.3798828125,4,-34.4500000000,A01A3A,5,1548137663000
1548137670500.0000000000,4,-36.8700000000,A01A3A,5,1548137663000
1548137670515.6201171875,4,-39.1100000000,A01A3A,5,1548137663000
1548137670531.2500000000,4,-40.7000000000,A01A3A,5,1548137663000
1548137670546.8798828125,4,-41.1900000000,A01A3A,5,1548137663000
1548137670562.5000000000,4,-40.3000000000,A01A3A,5,1548137663000
1548137670578.1201171875,4,-37.8500000000,A01A3A,5,1548137663000
1548137670593.7500000000,4,-33.7800000000,A01A3A,5,1548137663000
1548137670609.3798828125,4,-28.0900000000,A01A3A,5,1548137663000
1548137670625.0000000000,4,-20.9000000000,A01A3A,5,1548137663000
1548137670640.6201171875,4,-12.5200000000,A01A3A,5,1548137663000
1548137670656.2500000000,4,-3.4200000000,A01A3A,5,1548137663000
1548137670671.8798828125,4,5.7000000000,A01A3A,5,1548137663000
1548137670687.5000000000,4,14.2200000000,A01A3A,5,1548137663000
1548137670703.1201171875,4,21.6100000000,A01A3A,5,1548137663000
1548137670718.7500000000,4,27.6100000000,A01A3A,5,1548137663000
1548137670734.3798828125,4,32.2300000000,A01A3A,5,1548137663000
1548137670750.0000000000,4,35.5700000000,A01A3A,5,1548137663000
1548137670765.6201171875,4,37.8000000000,A01A3A,5,1548137663000
1548137670781.2500000000,4,39.0200000000,A01A3A,5,1548137663000
1548137670796.8798828125,4,39.3200000000,A01A3A,5,1548137663000
1548137670812.5000000000,4,38.7800000000,A01A3A,5,1548137663000
1548137670828.1201171875,4,37.6000000000,A01A3A,5,1548137663000
1548137670843.7500000000,4,36.0000000000,A01A3A,5,1548137663000
1548137670859.3798828125,4,34.2200000000,A01A3A,5,1548137663000
1548137670875.0000000000,4,32.3800000000,A01A3A,5,1548137663000
1548137670890.6201171875,4,30.4700000000,A01A3A,5,1548137663000
1548137670906.2500000000,4,28.3600000000,A01A3A,5,1548137663000
1548137670921.8798828125,4,25.9100000000,A01A3A,5,1548137663000
1548137670937.5000000000,4,23.0700000000,A01A3A,5,1548137663000
1548137670953.1201171875,4,19.9300000000,A01A3A,5,1548137663000
1548137670968.7500000000,4,16.7000000000,A01A3A,5,1548137663000
1548137670984.3798828125,4,13.6300000000,A01A3A,5,1548137663000
1548137671000.0000000000,4,10.8400000000,A01A3A,5,1548137663000
1548137671015.6201171875,4,8.3300000000,A01A3A,5,1548137663000
1548137671031.2500000000,4,5.9600000000,A01A3A,5,1548137663000
1548137671046.8798828125,4,3.6200000000,A01A3A,5,1548137663000
1548137671062.5000000000,4,1.2900000000,A01A3A,5,1548137663000
1548137671078.1201171875,4,-0.8300000000,A01A3A,5,1548137663000
1548137671093.7500000000,4,-2.4100000000,A01A3A,5,1548137663000
1548137671109.3798828125,4,-3.1500000000,A01A3A,5,1548137663000
1548137671125.0000000000,4,-2.9200000000,A01A3A,5,1548137663000
1548137671140.6201171875,4,-1.8100000000,A01A3A,5,1548137663000
1548137671156.2500000000,4,-0.1100000000,A01A3A,5,1548137663000
1548137671171.8798828125,4,1.8700000000,A01A3A,5,1548137663000
1548137671187.5000000000,4,3.9500000000,A01A3A,5,1548137663000
1548137671203.1201171875,4,6.0800000000,A01A3A,5,1548137663000
1548137671218.7500000000,4,8.3200000000,A01A3A,5,1548137663000
1548137671234.3798828125,4,10.7000000000,A01A3A,5,1548137663000
1548137671250.0000000000,4,13.1200000000,A01A3A,5,1548137663000
1548137671265.6201171875,4,15.3900000000,A01A3A,5,1548137663000
1548137671281.2500000000,4,17.2200000000,A01A3A,5,1548137663000
1548137671296.8798828125,4,18.4100000000,A01A3A,5,1548137663000
1548137671312.5000000000,4,18.8800000000,A01A3A,5,1548137663000
1548137671328.1201171875,4,18.7900000000,A01A3A,5,1548137663000
1548137671343.7500000000,4,18.3200000000,A01A3A,5,1548137663000
1548137671359.3798828125,4,17.7200000000,A01A3A,5,1548137663000
1548137671375.0000000000,4,17.1000000000,A01A3A,5,1548137663000
1548137671390.6201171875,4,16.4900000000,A01A3A,5,1548137663000
1548137671406.2500000000,4,15.8600000000,A01A3A,5,1548137663000
1548137671421.8798828125,4,15.1600000000,A01A3A,5,1548137663000
1548137671437.5000000000,4,14.3900000000,A01A3A,5,1548137663000
1548137671453.1201171875,4,13.6200000000,A01A3A,5,1548137663000
1548137671468.7500000000,4,12.9200000000,A01A3A,5,1548137663000
1548137671484.3798828125,4,12.4000000000,A01A3A,5,1548137663000
1548137671500.0000000000,4,12.0900000000,A01A3A,5,1548137663000
1548137671515.6201171875,4,12.0000000000,A01A3A,5,1548137663000
1548137671531.2500000000,4,12.1200000000,A01A3A,5,1548137663000
1548137671546.8798828125,4,12.4600000000,A01A3A,5,1548137663000
1548137671562.5000000000,4,13.0100000000,A01A3A,5,1548137663000
1548137671578.1201171875,4,13.7600000000,A01A3A,5,1548137663000
1548137671593.7500000000,4,14.6700000000,A01A3A,5,1548137663000
1548137671609.3798828125,4,15.6600000000,A01A3A,5,1548137663000
1548137671625.0000000000,4,16.6200000000,A01A3A,5,1548137663000
1548137671640.6201171875,4,17.5400000000,A01A3A,5,1548137663000
1548137671656.2500000000,4,18.4800000000,A01A3A,5,1548137663000
1548137671671.8798828125,4,19.5300000000,A01A3A,5,1548137663000
1548137671687.5000000000,4,20.8400000000,A01A3A,5,1548137663000
1548137671703.1201171875,4,22.5000000000,A01A3A,5,1548137663000
1548137671718.7500000000,4,24.5000000000,A01A3A,5,1548137663000
1548137671734.3798828125,4,26.7500000000,A01A3A,5,1548137663000
1548137671750.0000000000,4,29.2300000000,A01A3A,5,1548137663000
1548137671765.6201171875,4,31.9700000000,A01A3A,5,1548137663000
1548137671781.2500000000,4,35.1200000000,A01A3A,5,1548137663000
1548137671796.8798828125,4,38.8700000000,A01A3A,5,1548137663000
1548137671812.5000000000,4,43.3200000000,A01A3A,5,1548137663000
1548137671828.1201171875,4,48.4200000000,A01A3A,5,1548137663000
1548137671843.7500000000,4,53.9100000000,A01A3A,5,1548137663000
1548137671859.3798828125,4,59.3900000000,A01A3A,5,1548137663000
1548137671875.0000000000,4,64.5300000000,A01A3A,5,1548137663000
1548137671890.6201171875,4,69.1700000000,A01A3A,5,1548137663000
1548137671906.2500000000,4,73.3700000000,A01A3A,5,1548137663000
1548137671921.8798828125,4,77.4600000000,A01A3A,5,1548137663000
1548137671937.5000000000,4,81.7800000000,A01A3A,5,1548137663000
1548137671953.1201171875,4,86.5200000000,A01A3A,5,1548137663000
1548137671968.7500000000,4,91.6100000000,A01A3A,5,1548137663000
1548137671984.3798828125,4,96.6000000000,A01A3A,5,1548137663000
1548137672000.0000000000,4,100.9500000000,A01A3A,5,1548137663000
1548137672015.6201171875,4,104.1400000000,A01A3A,5,1548137663000
1548137672031.2500000000,4,105.9100000000,A01A3A,5,1548137663000
1548137672046.8798828125,4,106.2200000000,A01A3A,5,1548137663000
1548137672062.5000000000,4,105.1300000000,A01A3A,5,1548137663000
1548137672078.1201171875,4,102.5000000000,A01A3A,5,1548137663000
1548137672093.7500000000,4,97.8400000000,A01A3A,5,1548137663000
1548137672109.3798828125,4,90.4800000000,A01A3A,5,1548137663000
1548137672125.0000000000,4,79.8100000000,A01A3A,5,1548137663000
1548137672140.6201171875,4,65.8100000000,A01A3A,5,1548137663000
1548137672156.2500000000,4,49.2200000000,A01A3A,5,1548137663000
1548137672171.8798828125,4,31.4800000000,A01A3A,5,1548137663000
1548137672187.5000000000,4,14.2100000000,A01A3A,5,1548137663000
1548137672203.1201171875,4,-1.3400000000,A01A3A,5,1548137663000
1548137672218.7500000000,4,-14.6400000000,A01A3A,5,1548137663000
1548137672234.3798828125,4,-25.7000000000,A01A3A,5,1548137663000
1548137672250.0000000000,4,-34.4000000000,A01A3A,5,1548137663000
1548137672265.6201171875,4,-40.2600000000,A01A3A,5,1548137663000
1548137672281.2500000000,4,-42.3200000000,A01A3A,5,1548137663000
1548137672296.8798828125,4,-40.0200000000,A01A3A,5,1548137663000
1548137672312.5000000000,4,-34.1200000000,A01A3A,5,1548137663000
1548137672328.1201171875,4,-26.8800000000,A01A3A,5,1548137663000
1548137672343.7500000000,4,-21.0100000000,A01A3A,5,1548137663000
1548137672359.3798828125,4,-17.9700000000,A01A3A,5,1548137663000
1548137672375.0000000000,4,-16.7000000000,A01A3A,5,1548137663000
1548137672390.6201171875,4,-14.0400000000,A01A3A,5,1548137663000
1548137672406.2500000000,4,-7.0600000000,A01A3A,5,1548137663000
1548137672421.8798828125,4,4.3700000000,A01A3A,5,1548137663000
1548137672437.5000000000,4,16.0900000000,A01A3A,5,1548137663000
1548137672453.1201171875,4,21.1600000000,A01A3A,5,1548137663000
1548137672468.7500000000,4,13.2500000000,A01A3A,5,1548137663000
1548137672484.3798828125,4,-9.9600000000,A01A3A,5,1548137663000
1548137672500.0000000000,4,-45.5200000000,A01A3A,5,1548137663000
1548137672515.6201171875,4,-86.7800000000,A01A3A,5,1548137663000
1548137672531.2500000000,4,-126.8000000000,A01A3A,5,1548137663000
1548137672546.8798828125,4,-161.3400000000,A01A3A,5,1548137663000
1548137672562.5000000000,4,-189.6800000000,A01A3A,5,1548137663000
1548137672578.1201171875,4,-213.2000000000,A01A3A,5,1548137663000
1548137672593.7500000000,4,-233.1800000000,A01A3A,5,1548137663000
1548137672609.3798828125,4,-249.3600000000,A01A3A,5,1548137663000
1548137672625.0000000000,4,-260.2500000000,A01A3A,5,1548137663000
1548137672640.6201171875,4,-264.5800000000,A01A3A,5,1548137663000
1548137672656.2500000000,4,-262.7800000000,A01A3A,5,1548137663000
1548137672671.8798828125,4,-257.1300000000,A01A3A,5,1548137663000
1548137672687.5000000000,4,-250.8100000000,A01A3A,5,1548137663000
1548137672703.1201171875,4,-246.2600000000,A01A3A,5,1548137663000
1548137672718.7500000000,4,-243.9700000000,A01A3A,5,1548137663000
1548137672734.3798828125,4,-242.1600000000,A01A3A,5,1548137663000
1548137672750.0000000000,4,-237.4400000000,A01A3A,5,1548137663000
1548137672765.6201171875,4,-226.3800000000,A01A3A,5,1548137663000
1548137672781.2500000000,4,-206.8400000000,A01A3A,5,1548137663000
1548137672796.8798828125,4,-178.9600000000,A01A3A,5,1548137663000
1548137672812.5000000000,4,-145.2200000000,A01A3A,5,1548137663000
1548137672828.1201171875,4,-109.5800000000,A01A3A,5,1548137663000
1548137672843.7500000000,4,-75.8800000000,A01A3A,5,1548137663000
1548137672859.3798828125,4,-46.4000000000,A01A3A,5,1548137663000
1548137672875.0000000000,4,-21.2800000000,A01A3A,5,1548137663000
1548137672890.6201171875,4,1.0100000000,A01A3A,5,1548137663000
1548137672906.2500000000,4,22.4300000000,A01A3A,5,1548137663000
1548137672921.8798828125,4,44.0700000000,A01A3A,5,1548137663000
1548137672937.5000000000,4,65.4100000000,A01A3A,5,1548137663000
1548137672953.1201171875,4,84.5200000000,A01A3A,5,1548137663000
1548137672968.7500000000,4,99.0800000000,A01A3A,5,1548137663000
1548137672984.3798828125,4,107.4700000000,A01A3A,5,1548137663000
1548137673000.0000000000,4,109.4300000000,A01A3A,5,1548137663000
1548137673015.6201171875,4,106.1900000000,A01A3A,5,1548137663000
1548137673031.2500000000,4,99.8900000000,A01A3A,5,1548137663000
1548137673046.8798828125,4,92.9100000000,A01A3A,5,1548137663000
1548137673062.5000000000,4,87.2000000000,A01A3A,5,1548137663000
1548137673078.1201171875,4,84.0100000000,A01A3A,5,1548137663000
1548137673093.7500000000,4,83.8000000000,A01A3A,5,1548137663000
1548137673109.3798828125,4,86.5300000000,A01A3A,5,1548137663000
1548137673125.0000000000,4,91.8100000000,A01A3A,5,1548137663000
1548137673140.6201171875,4,99.1100000000,A01A3A,5,1548137663000
1548137673156.2500000000,4,107.8700000000,A01A3A,5,1548137663000
1548137673171.8798828125,4,117.5300000000,A01A3A,5,1548137663000
1548137673187.5000000000,4,127.5600000000,A01A3A,5,1548137663000
1548137673203.1201171875,4,137.4000000000,A01A3A,5,1548137663000
1548137673218.7500000000,4,146.5900000000,A01A3A,5,1548137663000
1548137673234.3798828125,4,154.7100000000,A01A3A,5,1548137663000
1548137673250.0000000000,4,161.4400000000,A01A3A,5,1548137663000
1548137673265.6201171875,4,166.6400000000,A01A3A,5,1548137663000
1548137673281.2500000000,4,170.2600000000,A01A3A,5,1548137663000
1548137673296.8798828125,4,172.5300000000,A01A3A,5,1548137663000
1548137673312.5000000000,4,174.0600000000,A01A3A,5,1548137663000
1548137673328.1201171875,4,176.0300000000,A01A3A,5,1548137663000
1548137673343.7500000000,4,179.9900000000,A01A3A,5,1548137663000
1548137673359.3798828125,4,187.1600000000,A01A3A,5,1548137663000
1548137673375.0000000000,4,197.4600000000,A01A3A,5,1548137663000
1548137673390.6201171875,4,208.7800000000,A01A3A,5,1548137663000
1548137673406.2500000000,4,217.0000000000,A01A3A,5,1548137663000
1548137673421.8798828125,4,217.2000000000,A01A3A,5,1548137663000
1548137673437.5000000000,4,205.5700000000,A01A3A,5,1548137663000
1548137673453.1201171875,4,181.0600000000,A01A3A,5,1548137663000
1548137673468.7500000000,4,146.0500000000,A01A3A,5,1548137663000
1548137673484.3798828125,4,105.3100000000,A01A3A,5,1548137663000
1548137673500.0000000000,4,64.0700000000,A01A3A,5,1548137663000
1548137673515.6201171875,4,25.9500000000,A01A3A,5,1548137663000
1548137673531.2500000000,4,-8.0400000000,A01A3A,5,1548137663000
1548137673546.8798828125,4,-39.1100000000,A01A3A,5,1548137663000
1548137673562.5000000000,4,-69.4300000000,A01A3A,5,1548137663000
1548137673578.1201171875,4,-100.9700000000,A01A3A,5,1548137663000
1548137673593.7500000000,4,-134.9900000000,A01A3A,5,1548137663000
1548137673609.3798828125,4,-172.2200000000,A01A3A,5,1548137663000
1548137673625.0000000000,4,-212.8600000000,A01A3A,5,1548137663000
1548137673640.6201171875,4,-256.0000000000,A01A3A,5,1548137663000
1548137673656.2500000000,4,-298.7500000000,A01A3A,5,1548137663000
1548137673671.8798828125,4,-335.8200000000,A01A3A,5,1548137663000
1548137673687.5000000000,4,-360.4300000000,A01A3A,5,1548137663000
1548137673703.1201171875,4,-366.7500000000,A01A3A,5,1548137663000
1548137673718.7500000000,4,-352.5100000000,A01A3A,5,1548137663000
1548137673734.3798828125,4,-320.5700000000,A01A3A,5,1548137663000
1548137673750.0000000000,4,-278.2400000000,A01A3A,5,1548137663000
1548137673765.6201171875,4,-234.3700000000,A01A3A,5,1548137663000
1548137673781.2500000000,4,-196.0400000000,A01A3A,5,1548137663000
1548137673796.8798828125,4,-166.1800000000,A01A3A,5,1548137663000
1548137673812.5000000000,4,-143.6100000000,A01A3A,5,1548137663000
1548137673828.1201171875,4,-125.0400000000,A01A3A,5,1548137663000
1548137673843.7500000000,4,-107.5100000000,A01A3A,5,1548137663000
1548137673859.3798828125,4,-90.0500000000,A01A3A,5,1548137663000
1548137673875.0000000000,4,-73.5300000000,A01A3A,5,1548137663000
1548137673890.6201171875,4,-59.4100000000,A01A3A,5,1548137663000
1548137673906.2500000000,4,-48.3300000000,A01A3A,5,1548137663000
1548137673921.8798828125,4,-39.6100000000,A01A3A,5,1548137663000
1548137673937.5000000000,4,-31.9900000000,A01A3A,5,1548137663000
1548137673953.1201171875,4,-24.5400000000,A01A3A,5,1548137663000
1548137673968.7500000000,4,-17.4700000000,A01A3A,5,1548137663000
1548137673984.3798828125,4,-12.0400000000,A01A3A,5,1548137663000
1548137674000.0000000000,4,-9.6400000000,A01A3A,5,1548137663000
1548137674015.6201171875,4,-10.9000000000,A01A3A,5,1548137663000
1548137674031.2500000000,4,-15.1200000000,A01A3A,5,1548137663000
1548137674046.8798828125,4,-20.5800000000,A01A3A,5,1548137663000
1548137674062.5000000000,4,-25.4200000000,A01A3A,5,1548137663000
1548137674078.1201171875,4,-28.6600000000,A01A3A,5,1548137663000
1548137674093.7500000000,4,-30.5700000000,A01A3A,5,1548137663000
1548137674109.3798828125,4,-32.4400000000,A01A3A,5,1548137663000
1548137674125.0000000000,4,-35.6600000000,A01A3A,5,1548137663000
1548137674140.6201171875,4,-40.7500000000,A01A3A,5,1548137663000
1548137674156.2500000000,4,-46.6800000000,A01A3A,5,1548137663000
1548137674171.8798828125,4,-51.1800000000,A01A3A,5,1548137663000
1548137674187.5000000000,4,-51.6600000000,A01A3A,5,1548137663000
1548137674203.1201171875,4,-46.3900000000,A01A3A,5,1548137663000
1548137674218.7500000000,4,-35.4000000000,A01A3A,5,1548137663000
1548137674234.3798828125,4,-20.4100000000,A01A3A,5,1548137663000
1548137674250.0000000000,4,-4.1500000000,A01A3A,5,1548137663000
1548137674265.6201171875,4,10.7900000000,A01A3A,5,1548137663000
1548137674281.2500000000,4,22.9000000000,A01A3A,5,1548137663000
1548137674296.8798828125,4,32.0300000000,A01A3A,5,1548137663000
1548137674312.5000000000,4,39.0400000000,A01A3A,5,1548137663000
1548137674328.1201171875,4,45.0300000000,A01A3A,5,1548137663000
1548137674343.7500000000,4,50.7500000000,A01A3A,5,1548137663000
1548137674359.3798828125,4,56.2000000000,A01A3A,5,1548137663000
1548137674375.0000000000,4,60.8400000000,A01A3A,5,1548137663000
1548137674390.6201171875,4,64.0100000000,A01A3A,5,1548137663000
1548137674406.2500000000,4,65.3700000000,A01A3A,5,1548137663000
1548137674421.8798828125,4,65.0300000000,A01A3A,5,1548137663000
1548137674437.5000000000,4,63.6000000000,A01A3A,5,1548137663000
1548137674453.1201171875,4,61.8100000000,A01A3A,5,1548137663000
1548137674468.7500000000,4,60.2800000000,A01A3A,5,1548137663000
1548137674484.3798828125,4,59.2800000000,A01A3A,5,1548137663000
1548137674500.0000000000,4,58.6200000000,A01A3A,5,1548137663000
1548137674515.6201171875,4,57.8900000000,A01A3A,5,1548137663000
1548137674531.2500000000,4,56.6700000000,A01A3A,5,1548137663000
1548137674546.8798828125,4,54.7900000000,A01A3A,5,1548137663000
1548137674562.5000000000,4,52.3700000000,A01A3A,5,1548137663000
1548137674578.1201171875,4,49.6800000000,A01A3A,5,1548137663000
1548137674593.7500000000,4,46.8500000000,A01A3A,5,1548137663000
1548137674609.3798828125,4,43.6900000000,A01A3A,5,1548137663000
1548137674625.0000000000,4,39.8200000000,A01A3A,5,1548137663000
1548137674640.6201171875,4,34.8600000000,A01A3A,5,1548137663000
1548137674656.2500000000,4,28.7300000000,A01A3A,5,1548137663000
1548137674671.8798828125,4,21.8500000000,A01A3A,5,1548137663000
1548137674687.5000000000,4,14.9800000000,A01A3A,5,1548137663000
1548137674703.1201171875,4,8.8900000000,A01A3A,5,1548137663000
1548137674718.7500000000,4,4.0300000000,A01A3A,5,1548137663000
1548137674734.3798828125,4,0.3200000000,A01A3A,5,1548137663000
1548137674750.0000000000,4,-2.8700000000,A01A3A,5,1548137663000
1548137674765.6201171875,4,-6.3800000000,A01A3A,5,1548137663000
1548137674781.2500000000,4,-11.0500000000,A01A3A,5,1548137663000
1548137674796.8798828125,4,-17.4200000000,A01A3A,5,1548137663000
1548137674812.5000000000,4,-25.5900000000,A01A3A,5,1548137663000
1548137674828.1201171875,4,-35.0500000000,A01A3A,5,1548137663000
1548137674843.7500000000,4,-44.6100000000,A01A3A,5,1548137663000
1548137674859.3798828125,4,-52.5700000000,A01A3A,5,1548137663000
1548137674875.0000000000,4,-57.0100000000,A01A3A,5,1548137663000
1548137674890.6201171875,4,-56.4300000000,A01A3A,5,1548137663000
1548137674906.2500000000,4,-50.2300000000,A01A3A,5,1548137663000
1548137674921.8798828125,4,-39.0800000000,A01A3A,5,1548137663000
1548137674937.5000000000,4,-24.6800000000,A01A3A,5,1548137663000
1548137674953.1201171875,4,-9.2900000000,A01A3A,5,1548137663000
1548137674968.7500000000,4,5.0400000000,A01A3A,5,1548137663000
1548137674984.3798828125,4,16.9500000000,A01A3A,5,1548137663000
1548137675000.0000000000,4,26.0200000000,A01A3A,5,1548137663000
1548137675015.6201171875,4,32.5200000000,A01A3A,5,1548137663000
1548137675031.2500000000,4,36.9500000000,A01A3A,5,1548137663000
1548137675046.8798828125,4,39.7200000000,A01A3A,5,1548137663000
1548137675062.5000000000,4,41.0300000000,A01A3A,5,1548137663000
1548137675078.1201171875,4,41.0300000000,A01A3A,5,1548137663000
1548137675093.7500000000,4,40.0500000000,A01A3A,5,1548137663000
1548137675109.3798828125,4,38.7800000000,A01A3A,5,1548137663000
1548137675125.0000000000,4,38.0400000000,A01A3A,5,1548137663000
1548137675140.6201171875,4,38.5400000000,A01A3A,5,1548137663000
1548137675156.2500000000,4,40.4500000000,A01A3A,5,1548137663000
1548137675171.8798828125,4,43.3200000000,A01A3A,5,1548137663000
1548137675187.5000000000,4,46.2700000000,A01A3A,5,1548137663000
1548137675203.1201171875,4,48.3800000000,A01A3A,5,1548137663000
1548137675218.7500000000,4,49.1800000000,A01A3A,5,1548137663000
1548137675234.3798828125,4,48.7700000000,A01A3A,5,1548137663000
1548137675250.0000000000,4,47.6600000000,A01A3A,5,1548137663000
1548137675265.6201171875,4,46.4000000000,A01A3A,5,1548137663000
1548137675281.2500000000,4,45.2100000000,A01A3A,5,1548137663000
1548137675296.8798828125,4,43.8400000000,A01A3A,5,1548137663000
1548137675312.5000000000,4,41.7600000000,A01A3A,5,1548137663000
1548137675328.1201171875,4,38.5300000000,A01A3A,5,1548137663000
1548137675343.7500000000,4,34.0200000000,A01A3A,5,1548137663000
1548137675359.3798828125,4,28.5200000000,A01A3A,5,1548137663000
1548137675375.0000000000,4,22.5700000000,A01A3A,5,1548137663000
1548137675390.6201171875,4,16.7700000000,A01A3A,5,1548137663000
1548137675406.2500000000,4,11.5700000000,A01A3A,5,1548137663000
1548137675421.8798828125,4,7.1700000000,A01A3A,5,1548137663000
1548137675437.5000000000,4,3.4600000000,A01A3A,5,1548137663000
1548137675453.1201171875,4,0.0700000000,A01A3A,5,1548137663000
1548137675468.7500000000,4,-3.6000000000,A01A3A,5,1548137663000
1548137675484.3798828125,4,-8.3300000000,A01A3A,5,1548137663000
1548137675500.0000000000,4,-14.7500000000,A01A3A,5,1548137663000
1548137675515.6201171875,4,-23.0200000000,A01A3A,5,1548137663000
1548137675531.2500000000,4,-32.5000000000,A01A3A,5,1548137663000
1548137675546.8798828125,4,-41.7300000000,A01A3A,5,1548137663000
1548137675562.5000000000,4,-48.7200000000,A01A3A,5,1548137663000
1548137675578.1201171875,4,-51.5900000000,A01A3A,5,1548137663000
1548137675593.7500000000,4,-49.2200000000,A01A3A,5,1548137663000
1548137675609.3798828125,4,-41.6200000000,A01A3A,5,1548137663000
1548137675625.0000000000,4,-29.9500000000,A01A3A,5,1548137663000
1548137675640.6201171875,4,-16.0400000000,A01A3A,5,1548137663000
1548137675656.2500000000,4,-1.8400000000,A01A3A,5,1548137663000
1548137675671.8798828125,4,11.0600000000,A01A3A,5,1548137663000
1548137675687.5000000000,4,21.7100000000,A01A3A,5,1548137663000
1548137675703.1201171875,4,29.7400000000,A01A3A,5,1548137663000
1548137675718.7500000000,4,35.1900000000,A01A3A,5,1548137663000
1548137675734.3798828125,4,38.3400000000,A01A3A,5,1548137663000
1548137675750.0000000000,4,39.6800000000,A01A3A,5,1548137663000
1548137675765.6201171875,4,39.7900000000,A01A3A,5,1548137663000
1548137675781.2500000000,4,39.3900000000,A01A3A,5,1548137663000
1548137675796.8798828125,4,39.1300000000,A01A3A,5,1548137663000
1548137675812.5000000000,4,39.4600000000,A01A3A,5,1548137663000
1548137675828.1201171875,4,40.4800000000,A01A3A,5,1548137663000
1548137675843.7500000000,4,41.9100000000,A01A3A,5,1548137663000
1548137675859.3798828125,4,43.2900000000,A01A3A,5,1548137663000
1548137675875.0000000000,4,44.1900000000,A01A3A,5,1548137663000
1548137675890.6201171875,4,44.3500000000,A01A3A,5,1548137663000
1548137675906.2500000000,4,43.7600000000,A01A3A,5,1548137663000
1548137675921.8798828125,4,42.6200000000,A01A3A,5,1548137663000
1548137675937.5000000000,4,41.1900000000,A01A3A,5,1548137663000
1548137675953.1201171875,4,39.6800000000,A01A3A,5,1548137663000
1548137675968.7500000000,4,38.1500000000,A01A3A,5,1548137663000
1548137675984.3798828125,4,36.5500000000,A01A3A,5,1548137663000
1548137676000.0000000000,4,34.7600000000,A01A3A,5,1548137663000
1548137676015.6201171875,4,32.5900000000,A01A3A,5,1548137663000
1548137676031.2500000000,4,29.8400000000,A01A3A,5,1548137663000
1548137676046.8798828125,4,26.3400000000,A01A3A,5,1548137663000
1548137676062.5000000000,4,22.1100000000,A01A3A,5,1548137663000
1548137676078.1201171875,4,17.3000000000,A01A3A,5,1548137663000
1548137676093.7500000000,4,12.3300000000,A01A3A,5,1548137663000
1548137676109.3798828125,4,7.6300000000,A01A3A,5,1548137663000
1548137676125.0000000000,4,3.5400000000,A01A3A,5,1548137663000
1548137676140.6201171875,4,0.0700000000,A01A3A,5,1548137663000
1548137676156.2500000000,4,-3.1100000000,A01A3A,5,1548137663000
1548137676171.8798828125,4,-6.6400000000,A01A3A,5,1548137663000
1548137676187.5000000000,4,-11.2100000000,A01A3A,5,1548137663000
1548137676203.1201171875,4,-17.2800000000,A01A3A,5,1548137663000
1548137676218.7500000000,4,-24.8700000000,A01A3A,5,1548137663000
1548137676234.3798828125,4,-33.3300000000,A01A3A,5,1548137663000
1548137676250.0000000000,4,-41.4000000000,A01A3A,5,1548137663000
1548137676265.6201171875,4,-47.4200000000,A01A3A,5,1548137663000
1548137676281.2500000000,4,-49.7700000000,A01A3A,5,1548137663000
1548137676296.8798828125,4,-47.4700000000,A01A3A,5,1548137663000
1548137676312.5000000000,4,-40.4800000000,A01A3A,5,1548137663000
1548137676328.1201171875,4,-29.7300000000,A01A3A,5,1548137663000
1548137676343.7500000000,4,-16.9200000000,A01A3A,5,1548137663000
1548137676359.3798828125,4,-3.8600000000,A01A3A,5,1548137663000
1548137676375.0000000000,4,7.9500000000,A01A3A,5,1548137663000
1548137676390.6201171875,4,17.6100000000,A01A3A,5,1548137663000
1548137676406.2500000000,4,24.8300000000,A01A3A,5,1548137663000
1548137676421.8798828125,4,29.7400000000,A01A3A,5,1548137663000
1548137676437.5000000000,4,32.6400000000,A01A3A,5,1548137663000
1548137676453.1201171875,4,33.9000000000,A01A3A,5,1548137663000
1548137676468.7500000000,4,33.9600000000,A01A3A,5,1548137663000
1548137676484.3798828125,4,33.2600000000,A01A3A,5,1548137663000
1548137676500.0000000000,4,32.2700000000,A01A3A,5,1548137663000
1548137676515.6201171875,4,31.4000000000,A01A3A,5,1548137663000
1548137676531.2500000000,4,30.9200000000,A01A3A,5,1548137663000
1548137676546.8798828125,4,30.9200000000,A01A3A,5,1548137663000
1548137676562.5000000000,4,31.3800000000,A01A3A,5,1548137663000
1548137676578.1201171875,4,32.1700000000,A01A3A,5,1548137663000
1548137676593.7500000000,4,33.0700000000,A01A3A,5,1548137663000
1548137676609.3798828125,4,33.8100000000,A01A3A,5,1548137663000
1548137676625.0000000000,4,34.1100000000,A01A3A,5,1548137663000
1548137676640.6201171875,4,33.7700000000,A01A3A,5,1548137663000
1548137676656.2500000000,4,32.8000000000,A01A3A,5,1548137663000
1548137676671.8798828125,4,31.4200000000,A01A3A,5,1548137663000
1548137676687.5000000000,4,29.9500000000,A01A3A,5,1548137663000
1548137676703.1201171875,4,28.5600000000,A01A3A,5,1548137663000
1548137676718.7500000000,4,27.1700000000,A01A3A,5,1548137663000
1548137676734.3798828125,4,25.4200000000,A01A3A,5,1548137663000
1548137676750.0000000000,4,22.9300000000,A01A3A,5,1548137663000
1548137676765.6201171875,4,19.4700000000,A01A3A,5,1548137663000
1548137676781.2500000000,4,15.2000000000,A01A3A,5,1548137663000
1548137676796.8798828125,4,10.5500000000,A01A3A,5,1548137663000
1548137676812.5000000000,4,6.0500000000,A01A3A,5,1548137663000
1548137676828.1201171875,4,2.0500000000,A01A3A,5,1548137663000
1548137676843.7500000000,4,-1.3500000000,A01A3A,5,1548137663000
1548137676859.3798828125,4,-4.3200000000,A01A3A,5,1548137663000
1548137676875.0000000000,4,-7.1700000000,A01A3A,5,1548137663000
1548137676890.6201171875,4,-10.2300000000,A01A3A,5,1548137663000
1548137676906.2500000000,4,-13.8400000000,A01A3A,5,1548137663000
1548137676921.8798828125,4,-18.2600000000,A01A3A,5,1548137663000
1548137676937.5000000000,4,-23.6000000000,A01A3A,5,1548137663000
1548137676953.1201171875,4,-29.6300000000,A01A3A,5,1548137663000
1548137676968.7500000000,4,-35.6200000000,A01A3A,5,1548137663000
1548137676984.3798828125,4,-40.3900000000,A01A3A,5,1548137663000
1548137677000.0000000000,4,-42.6100000000,A01A3A,5,1548137663000
1548137677015.6201171875,4,-41.3100000000,A01A3A,5,1548137663000
1548137677031.2500000000,4,-36.1900000000,A01A3A,5,1548137663000
1548137677046.8798828125,4,-27.8900000000,A01A3A,5,1548137663000
1548137677062.5000000000,4,-17.6800000000,A01A3A,5,1548137663000
1548137677078.1201171875,4,-7.0300000000,A01A3A,5,1548137663000
1548137677093.7500000000,4,2.8500000000,A01A3A,5,1548137663000
1548137677109.3798828125,4,11.2800000000,A01A3A,5,1548137663000
1548137677125.0000000000,4,18.0700000000,A01A3A,5,1548137663000
1548137677140.6201171875,4,23.3000000000,A01A3A,5,1548137663000
1548137677156.2500000000,4,27.0600000000,A01A3A,5,1548137663000
1548137677171.8798828125,4,29.3500000000,A01A3A,5,1548137663000
1548137677187.5000000000,4,30.1600000000,A01A3A,5,1548137663000
1548137677203.1201171875,4,29.6100000000,A01A3A,5,1548137663000
1548137677218.7500000000,4,28.0800000000,A01A3A,5,1548137663000
1548137677234.3798828125,4,26.2300000000,A01A3A,5,1548137663000
1548137677250.0000000000,4,24.7700000000,A01A3A,5,1548137663000
1548137677265.6201171875,4,24.2300000000,A01A3A,5,1548137663000
1548137677281.2500000000,4,24.7100000000,A01A3A,5,1548137663000
1548137677296.8798828125,4,25.8700000000,A01A3A,5,1548137663000
1548137677312.5000000000,4,27.0900000000,A01A3A,5,1548137663000
1548137677328.1201171875,4,27.6700000000,A01A3A,5,1548137663000
1548137677343.7500000000,4,27.2200000000,A01A3A,5,1548137663000
1548137677359.3798828125,4,25.6400000000,A01A3A,5,1548137663000
1548137677375.0000000000,4,23.2400000000,A01A3A,5,1548137663000
1548137677390.6201171875,4,20.4700000000,A01A3A,5,1548137663000
1548137677406.2500000000,4,17.7700000000,A01A3A,5,1548137663000
1548137677421.8798828125,4,15.4900000000,A01A3A,5,1548137663000
1548137677437.5000000000,4,13.7300000000,A01A3A,5,1548137663000
1548137677453.1201171875,4,12.4500000000,A01A3A,5,1548137663000
1548137677468.7500000000,4,11.5000000000,A01A3A,5,1548137663000
1548137677484.3798828125,4,10.6300000000,A01A3A,5,1548137663000
1548137677500.0000000000,4,9.6600000000,A01A3A,5,1548137663000
1548137677515.6201171875,4,8.4600000000,A01A3A,5,1548137663000
1548137677531.2500000000,4,6.9300000000,A01A3A,5,1548137663000
1548137677546.8798828125,4,5.0800000000,A01A3A,5,1548137663000
1548137677562.5000000000,4,2.8500000000,A01A3A,5,1548137663000
1548137677578.1201171875,4,0.2200000000,A01A3A,5,1548137663000
1548137677593.7500000000,4,-2.8600000000,A01A3A,5,1548137663000
1548137677609.3798828125,4,-6.4400000000,A01A3A,5,1548137663000
1548137677625.0000000000,4,-10.5100000000,A01A3A,5,1548137663000
1548137677640.6201171875,4,-14.9800000000,A01A3A,5,1548137663000
1548137677656.2500000000,4,-19.5800000000,A01A3A,5,1548137663000
1548137677671.8798828125,4,-23.8200000000,A01A3A,5,1548137663000
1548137677687.5000000000,4,-26.9700000000,A01A3A,5,1548137663000
1548137677703.1201171875,4,-28.2500000000,A01A3A,5,1548137663000
1548137677718.7500000000,4,-27.1000000000,A01A3A,5,1548137663000
1548137677734.3798828125,4,-23.4800000000,A01A3A,5,1548137663000
1548137677750.0000000000,4,-17.9600000000,A01A3A,5,1548137663000
1548137677765.6201171875,4,-11.5900000000,A01A3A,5,1548137663000
1548137677781.2500000000,4,-5.5800000000,A01A3A,5,1548137663000
1548137677796.8798828125,4,-0.7700000000,A01A3A,5,1548137663000
1548137677812.5000000000,4,2.6500000000,A01A3A,5,1548137663000
1548137677828.1201171875,4,5.1200000000,A01A3A,5,1548137663000
1548137677843.7500000000,4,7.3600000000,A01A3A,5,1548137663000
1548137677859.3798828125,4,9.7800000000,A01A3A,5,1548137663000
1548137677875.0000000000,4,12.4000000000,A01A3A,5,1548137663000
1548137677890.6201171875,4,14.7700000000,A01A3A,5,1548137663000
1548137677906.2500000000,4,16.5200000000,A01A3A,5,1548137663000
1548137677921.8798828125,4,17.6400000000,A01A3A,5,1548137663000
1548137677937.5000000000,4,18.6200000000,A01A3A,5,1548137663000
1548137677953.1201171875,4,20.4100000000,A01A3A,5,1548137663000
1548137677968.7500000000,4,23.9700000000,A01A3A,5,1548137663000
1548137677984.3798828125,4,29.7900000000,A01A3A,5,1548137663000
1548137678000.0000000000,4,37.6100000000,A01A3A,5,1548137663000
1548137678015.6201171875,4,46.4200000000,A01A3A,5,1548137663000
1548137678031.2500000000,4,54.7200000000,A01A3A,5,1548137663000
1548137678046.8798828125,4,61.1900000000,A01A3A,5,1548137663000
1548137678062.5000000000,4,65.0400000000,A01A3A,5,1548137663000
1548137678078.1201171875,4,66.3000000000,A01A3A,5,1548137663000
1548137678093.7500000000,4,65.8200000000,A01A3A,5,1548137663000
1548137678109.3798828125,4,64.9400000000,A01A3A,5,1548137663000
1548137678125.0000000000,4,64.6300000000,A01A3A,5,1548137663000
1548137678140.6201171875,4,65.0400000000,A01A3A,5,1548137663000
1548137678156.2500000000,4,65.6300000000,A01A3A,5,1548137663000
1548137678171.8798828125,4,65.4000000000,A01A3A,5,1548137663000
1548137678187.5000000000,4,64.0300000000,A01A3A,5,1548137663000
1548137678203.1201171875,4,61.6500000000,A01A3A,5,1548137663000
1548137678218.7500000000,4,58.9700000000,A01A3A,5,1548137663000
1548137678234.3798828125,4,57.1100000000,A01A3A,5,1548137663000
1548137678250.0000000000,4,57.1600000000,A01A3A,5,1548137663000
1548137678265.6201171875,4,59.4500000000,A01A3A,5,1548137663000
1548137678281.2500000000,4,63.4400000000,A01A3A,5,1548137663000
1548137678296.8798828125,4,68.2300000000,A01A3A,5,1548137663000
1548137678312.5000000000,4,72.6800000000,A01A3A,5,1548137663000
1548137678328.1201171875,4,76.7100000000,A01A3A,5,1548137663000
1548137678343.7500000000,4,80.1600000000,A01A3A,5,1548137663000
1548137678359.3798828125,4,83.1000000000,A01A3A,5,1548137663000
1548137678375.0000000000,4,86.5600000000,A01A3A,5,1548137663000
1548137678390.6201171875,4,92.9900000000,A01A3A,5,1548137663000
1548137678406.2500000000,4,105.2500000000,A01A3A,5,1548137663000
1548137678421.8798828125,4,125.7400000000,A01A3A,5,1548137663000
1548137678437.5000000000,4,155.7700000000,A01A3A,5,1548137663000
1548137678453.1201171875,4,193.3700000000,A01A3A,5,1548137663000
1548137678468.7500000000,4,234.9000000000,A01A3A,5,1548137663000
1548137678484.3798828125,4,273.8900000000,A01A3A,5,1548137663000
1548137678500.0000000000,4,303.2700000000,A01A3A,5,1548137663000
1548137678515.6201171875,4,318.6400000000,A01A3A,5,1548137663000
1548137678531.2500000000,4,320.2300000000,A01A3A,5,1548137663000
1548137678546.8798828125,4,311.4400000000,A01A3A,5,1548137663000
1548137678562.5000000000,4,297.3600000000,A01A3A,5,1548137663000
1548137678578.1201171875,4,283.2900000000,A01A3A,5,1548137663000
1548137678593.7500000000,4,271.0900000000,A01A3A,5,1548137663000
1548137678609.3798828125,4,260.9900000000,A01A3A,5,1548137663000
1548137678625.0000000000,4,249.6600000000,A01A3A,5,1548137663000
1548137678640.6201171875,4,231.9000000000,A01A3A,5,1548137663000
1548137678656.2500000000,4,203.6900000000,A01A3A,5,1548137663000
1548137678671.8798828125,4,163.8400000000,A01A3A,5,1548137663000
1548137678687.5000000000,4,112.2800000000,A01A3A,5,1548137663000
1548137678703.1201171875,4,50.0000000000,A01A3A,5,1548137663000
1548137678718.7500000000,4,-20.8500000000,A01A3A,5,1548137663000
1548137678734.3798828125,4,-107.1500000000,A01A3A,5,1548137663000
1548137678750.0000000000,4,-201.3700000000,A01A3A,5,1548137663000
1548137678765.6201171875,4,-287.4100000000,A01A3A,5,1548137663000
1548137678781.2500000000,4,-351.8700000000,A01A3A,5,1548137663000
1548137678796.8798828125,4,-391.0000000000,A01A3A,5,1548137663000
1548137678812.5000000000,4,-407.5200000000,A01A3A,5,1548137663000
1548137678828.1201171875,4,-406.9800000000,A01A3A,5,1548137663000
1548137678843.7500000000,4,-402.7200000000,A01A3A,5,1548137663000
1548137678859.3798828125,4,-395.9700000000,A01A3A,5,1548137663000
1548137678875.0000000000,4,-387.6000000000,A01A3A,5,1548137663000
1548137678890.6201171875,4,-378.2500000000,A01A3A,5,1548137663000
1548137678906.2500000000,4,-371.1700000000,A01A3A,5,1548137663000
1548137678921.8798828125,4,-371.7000000000,A01A3A,5,1548137663000
1548137678937.5000000000,4,-385.1400000000,A01A3A,5,1548137663000
1548137678953.1201171875,4,-406.0500000000,A01A3A,5,1548137663000
1548137678968.7500000000,4,-431.5900000000,A01A3A,5,1548137663000
1548137678984.3798828125,4,-458.3200000000,A01A3A,5,1548137663000
1548137679000.0000000000,4,-480.8500000000,A01A3A,5,1548137663000
1548137679015.6201171875,4,-494.9200000000,A01A3A,5,1548137663000
1548137679031.2500000000,4,-496.0100000000,A01A3A,5,1548137663000
1548137679046.8798828125,4,-482.7300000000,A01A3A,5,1548137663000
1548137679062.5000000000,4,-457.7400000000,A01A3A,5,1548137663000
1548137679078.1201171875,4,-426.6200000000,A01A3A,5,1548137663000
1548137679093.7500000000,4,-395.5400000000,A01A3A,5,1548137663000
1548137679109.3798828125,4,-370.6500000000,A01A3A,5,1548137663000
1548137679125.0000000000,4,-354.3300000000,A01A3A,5,1548137663000
1548137679140.6201171875,4,-343.7600000000,A01A3A,5,1548137663000
1548137679156.2500000000,4,-334.1200000000,A01A3A,5,1548137663000
1548137679171.8798828125,4,-319.6000000000,A01A3A,5,1548137663000
1548137679187.5000000000,4,-297.3600000000,A01A3A,5,1548137663000
1548137679203.1201171875,4,-268.7300000000,A01A3A,5,1548137663000
1548137679218.7500000000,4,-237.7200000000,A01A3A,5,1548137663000
1548137679234.3798828125,4,-208.3900000000,A01A3A,5,1548137663000
1548137679250.0000000000,4,-184.0400000000,A01A3A,5,1548137663000
1548137679265.6201171875,4,-165.1600000000,A01A3A,5,1548137663000
1548137679281.2500000000,4,-149.7000000000,A01A3A,5,1548137663000
1548137679296.8798828125,4,-135.8700000000,A01A3A,5,1548137663000
1548137679312.5000000000,4,-122.5500000000,A01A3A,5,1548137663000
1548137679328.1201171875,4,-110.2000000000,A01A3A,5,1548137663000
1548137679343.7500000000,4,-100.0200000000,A01A3A,5,1548137663000
1548137679359.3798828125,4,-92.5100000000,A01A3A,5,1548137663000
1548137679375.0000000000,4,-86.5000000000,A01A3A,5,1548137663000
1548137679390.6201171875,4,-80.2800000000,A01A3A,5,1548137663000
1548137679406.2500000000,4,-71.6300000000,A01A3A,5,1548137663000
1548137679421.8798828125,4,-58.9800000000,A01A3A,5,1548137663000
1548137679437.5000000000,4,-42.4400000000,A01A3A,5,1548137663000
1548137679453.1201171875,4,-23.4600000000,A01A3A,5,1548137663000
1548137679468.7500000000,4,-4.2100000000,A01A3A,5,1548137663000
1548137679484.3798828125,4,13.3800000000,A01A3A,5,1548137663000
1548137679500.0000000000,4,28.4200000000,A01A3A,5,1548137663000
1548137679515.6201171875,4,41.2600000000,A01A3A,5,1548137663000
1548137679531.2500000000,4,52.7200000000,A01A3A,5,1548137663000
1548137679546.8798828125,4,63.8300000000,A01A3A,5,1548137663000
1548137679562.5000000000,4,75.1900000000,A01A3A,5,1548137663000
1548137679578.1201171875,4,86.4600000000,A01A3A,5,1548137663000
1548137679593.7500000000,4,96.7200000000,A01A3A,5,1548137663000
1548137679609.3798828125,4,105.0400000000,A01A3A,5,1548137663000
1548137679625.0000000000,4,110.9500000000,A01A3A,5,1548137663000
1548137679640.6201171875,4,114.7800000000,A01A3A,5,1548137663000
1548137679656.2500000000,4,117.5500000000,A01A3A,5,1548137663000
1548137679671.8798828125,4,120.3700000000,A01A3A,5,1548137663000
1548137679687.5000000000,4,124.1200000000,A01A3A,5,1548137663000
1548137679703.1201171875,4,129.0600000000,A01A3A,5,1548137663000
1548137679718.7500000000,4,134.7900000000,A01A3A,5,1548137663000
1548137679734.3798828125,4,140.5800000000,A01A3A,5,1548137663000
1548137679750.0000000000,4,145.8100000000,A01A3A,5,1548137663000
1548137679765.6201171875,4,150.3600000000,A01A3A,5,1548137663000
1548137679781.2500000000,4,154.6200000000,A01A3A,5,1548137663000
1548137679796.8798828125,4,159.2200000000,A01A3A,5,1548137663000
1548137679812.5000000000,4,164.5500000000,A01A3A,5,1548137663000
1548137679828.1201171875,4,170.3700000000,A01A3A,5,1548137663000
1548137679843.7500000000,4,175.7300000000,A01A3A,5,1548137663000
1548137679859.3798828125,4,179.3200000000,A01A3A,5,1548137663000
1548137679875.0000000000,4,180.0600000000,A01A3A,5,1548137663000
1548137679890.6201171875,4,177.6700000000,A01A3A,5,1548137663000
1548137679906.2500000000,4,172.8900000000,A01A3A,5,1548137663000
1548137679921.8798828125,4,167.2700000000,A01A3A,5,1548137663000
1548137679937.5000000000,4,162.4200000000,A01A3A,5,1548137663000
1548137679953.1201171875,4,159.3800000000,A01A3A,5,1548137663000
1548137679968.7500000000,4,158.0600000000,A01A3A,5,1548137663000
1548137679984.3798828125,4,157.4800000000,A01A3A,5,1548137663000
1548137680000.0000000000,4,156.4100000000,A01A3A,5,1548137663000
1548137680015.6201171875,4,154.1100000000,A01A3A,5,1548137663000
1548137680031.2500000000,4,151.0600000000,A01A3A,5,1548137663000
1548137680046.8798828125,4,148.9500000000,A01A3A,5,1548137663000
1548137680062.5000000000,4,150.2200000000,A01A3A,5,1548137663000
1548137680078.1201171875,4,157.3800000000,A01A3A,5,1548137663000
1548137680093.7500000000,4,172.4200000000,A01A3A,5,1548137663000
1548137680109.3798828125,4,196.4900000000,A01A3A,5,1548137663000
1548137680125.0000000000,4,229.6600000000,A01A3A,5,1548137663000
1548137680140.6201171875,4,270.6900000000,A01A3A,5,1548137663000
1548137680156.2500000000,4,316.8500000000,A01A3A,5,1548137663000
1548137680171.8798828125,4,363.8900000000,A01A3A,5,1548137663000
1548137680187.5000000000,4,406.3800000000,A01A3A,5,1548137663000
1548137680203.1201171875,4,438.7600000000,A01A3A,5,1548137663000
1548137680218.7500000000,4,456.5800000000,A01A3A,5,1548137663000
1548137680234.3798828125,4,457.4400000000,A01A3A,5,1548137663000
1548137680250.0000000000,4,441.2800000000,A01A3A,5,1548137663000
1548137680265.6201171875,4,409.7800000000,A01A3A,5,1548137663000
1548137680281.2500000000,4,365.0200000000,A01A3A,5,1548137663000
1548137680296.8798828125,4,308.4400000000,A01A3A,5,1548137663000
1548137680312.5000000000,4,240.6700000000,A01A3A,5,1548137663000
1548137680328.1201171875,4,162.7700000000,A01A3A,5,1548137663000
1548137680343.7500000000,4,77.8100000000,A01A3A,5,1548137663000
1548137680359.3798828125,4,-8.0700000000,A01A3A,5,1548137663000
1548137680375.0000000000,4,-86.2800000000,A01A3A,5,1548137663000
1548137680390.6201171875,4,-147.8900000000,A01A3A,5,1548137663000
1548137680406.2500000000,4,-186.4200000000,A01A3A,5,1548137663000
1548137680421.8798828125,4,-199.7800000000,A01A3A,5,1548137663000
1548137680437.5000000000,4,-190.6500000000,A01A3A,5,1548137663000
1548137680453.1201171875,4,-165.0600000000,A01A3A,5,1548137663000
1548137680468.7500000000,4,-130.1600000000,A01A3A,5,1548137663000
1548137680484.3798828125,4,-92.4000000000,A01A3A,5,1548137663000
1548137680500.0000000000,4,-56.9400000000,A01A3A,5,1548137663000
1548137680515.6201171875,4,-28.1700000000,A01A3A,5,1548137663000
1548137680531.2500000000,4,-10.3500000000,A01A3A,5,1548137663000
1548137680546.8798828125,4,-7.4900000000,A01A3A,5,1548137663000
1548137680562.5000000000,4,-21.9500000000,A01A3A,5,1548137663000
1548137680578.1201171875,4,-52.5400000000,A01A3A,5,1548137663000
1548137680593.7500000000,4,-93.3200000000,A01A3A,5,1548137663000
1548137680609.3798828125,4,-134.1300000000,A01A3A,5,1548137663000
1548137680625.0000000000,4,-163.2400000000,A01A3A,5,1548137663000
1548137680640.6201171875,4,-170.9700000000,A01A3A,5,1548137663000
1548137680656.2500000000,4,-152.8700000000,A01A3A,5,1548137663000
1548137680671.8798828125,4,-110.9200000000,A01A3A,5,1548137663000
1548137680687.5000000000,4,-52.6500000000,A01A3A,5,1548137663000
1548137680703.1201171875,4,11.6900000000,A01A3A,5,1548137663000
1548137680718.7500000000,4,71.8900000000,A01A3A,5,1548137663000
1548137680734.3798828125,4,119.8600000000,A01A3A,5,1548137663000
1548137680750.0000000000,4,150.4900000000,A01A3A,5,1548137663000
1548137680765.6201171875,4,161.9400000000,A01A3A,5,1548137663000
1548137680781.2500000000,4,155.7700000000,A01A3A,5,1548137663000
1548137680796.8798828125,4,136.6400000000,A01A3A,5,1548137663000
1548137680812.5000000000,4,110.6900000000,A01A3A,5,1548137663000
1548137680828.1201171875,4,83.3000000000,A01A3A,5,1548137663000
1548137680843.7500000000,4,56.9600000000,A01A3A,5,1548137663000
1548137680859.3798828125,4,30.8700000000,A01A3A,5,1548137663000
1548137680875.0000000000,4,3.2300000000,A01A3A,5,1548137663000
1548137680890.6201171875,4,-25.3100000000,A01A3A,5,1548137663000
1548137680906.2500000000,4,-49.3400000000,A01A3A,5,1548137663000
1548137680921.8798828125,4,-59.9200000000,A01A3A,5,1548137663000
1548137680937.5000000000,4,-49.1700000000,A01A3A,5,1548137663000
1548137680953.1201171875,4,-15.6500000000,A01A3A,5,1548137663000
1548137680968.7500000000,4,33.3200000000,A01A3A,5,1548137663000
1548137680984.3798828125,4,84.0600000000,A01A3A,5,1548137663000
1548137681000.0000000000,4,122.5500000000,A01A3A,5,1548137663000
1548137681015.6201171875,4,140.6300000000,A01A3A,5,1548137663000
1548137681031.2500000000,4,138.4400000000,A01A3A,5,1548137663000
1548137681046.8798828125,4,122.2800000000,A01A3A,5,1548137663000
1548137681062.5000000000,4,99.6300000000,A01A3A,5,1548137663000
1548137681078.1201171875,4,74.8800000000,A01A3A,5,1548137663000
1548137681093.7500000000,4,48.2100000000,A01A3A,5,1548137663000
1548137681109.3798828125,4,17.7400000000,A01A3A,5,1548137663000
1548137681125.0000000000,4,-17.3700000000,A01A3A,5,1548137663000
1548137681140.6201171875,4,-55.0600000000,A01A3A,5,1548137663000
1548137681156.2500000000,4,-90.7800000000,A01A3A,5,1548137663000
1548137681171.8798828125,4,-119.4600000000,A01A3A,5,1548137663000
1548137681187.5000000000,4,-137.5600000000,A01A3A,5,1548137663000
1548137681203.1201171875,4,-144.0000000000,A01A3A,5,1548137663000
1548137681218.7500000000,4,-140.0700000000,A01A3A,5,1548137663000
1548137681234.3798828125,4,-128.6400000000,A01A3A,5,1548137663000
1548137681250.0000000000,4,-113.3700000000,A01A3A,5,1548137663000
1548137681265.6201171875,4,-98.1000000000,A01A3A,5,1548137663000
1548137681281.2500000000,4,-86.0100000000,A01A3A,5,1548137663000
1548137681296.8798828125,4,-78.7100000000,A01A3A,5,1548137663000
1548137681312.5000000000,4,-75.8100000000,A01A3A,5,1548137663000
1548137681328.1201171875,4,-75.1800000000,A01A3A,5,1548137663000
1548137681343.7500000000,4,-74.0500000000,A01A3A,5,1548137663000
1548137681359.3798828125,4,-70.5500000000,A01A3A,5,1548137663000
1548137681375.0000000000,4,-64.6300000000,A01A3A,5,1548137663000
1548137681390.6201171875,4,-58.0000000000,A01A3A,5,1548137663000
1548137681406.2500000000,4,-52.9100000000,A01A3A,5,1548137663000
1548137681421.8798828125,4,-50.8200000000,A01A3A,5,1548137663000
1548137681437.5000000000,4,-51.6400000000,A01A3A,5,1548137663000
1548137681453.1201171875,4,-53.9200000000,A01A3A,5,1548137663000
1548137681468.7500000000,4,-55.8100000000,A01A3A,5,1548137663000
1548137681484.3798828125,4,-55.8900000000,A01A3A,5,1548137663000
1548137681500.0000000000,4,-53.6400000000,A01A3A,5,1548137663000
1548137681515.6201171875,4,-49.2100000000,A01A3A,5,1548137663000
1548137681531.2500000000,4,-43.2200000000,A01A3A,5,1548137663000
1548137681546.8798828125,4,-36.6500000000,A01A3A,5,1548137663000
1548137681562.5000000000,4,-30.8000000000,A01A3A,5,1548137663000
1548137681578.1201171875,4,-27.1900000000,A01A3A,5,1548137663000
1548137681593.7500000000,4,-27.1100000000,A01A3A,5,1548137663000
1548137681609.3798828125,4,-31.0000000000,A01A3A,5,1548137663000
1548137681625.0000000000,4,-37.9900000000,A01A3A,5,1548137663000
1548137681640.6201171875,4,-46.1700000000,A01A3A,5,1548137663000
1548137681656.2500000000,4,-53.3000000000,A01A3A,5,1548137663000
1548137681671.8798828125,4,-57.7300000000,A01A3A,5,1548137663000
1548137681687.5000000000,4,-58.8400000000,A01A3A,5,1548137663000
1548137681703.1201171875,4,-56.9400000000,A01A3A,5,1548137663000
1548137681718.7500000000,4,-52.6100000000,A01A3A,5,1548137663000
1548137681734.3798828125,4,-46.1400000000,A01A3A,5,1548137663000
1548137681750.0000000000,4,-37.4100000000,A01A3A,5,1548137663000
1548137681765.6201171875,4,-26.1400000000,A01A3A,5,1548137663000
1548137681781.2500000000,4,-12.3700000000,A01A3A,5,1548137663000
1548137681796.8798828125,4,3.3300000000,A01A3A,5,1548137663000
1548137681812.5000000000,4,19.9700000000,A01A3A,5,1548137663000
1548137681828.1201171875,4,36.5300000000,A01A3A,5,1548137663000
1548137681843.7500000000,4,52.2500000000,A01A3A,5,1548137663000
1548137681859.3798828125,4,66.6900000000,A01A3A,5,1548137663000
1548137681875.0000000000,4,79.5600000000,A01A3A,5,1548137663000
1548137681890.6201171875,4,90.4900000000,A01A3A,5,1548137663000
1548137681906.2500000000,4,98.9200000000,A01A3A,5,1548137663000
1548137681921.8798828125,4,104.3700000000,A01A3A,5,1548137663000
1548137681937.5000000000,4,106.6300000000,A01A3A,5,1548137663000
1548137681953.1201171875,4,105.7700000000,A01A3A,5,1548137663000
1548137681968.7500000000,4,102.0300000000,A01A3A,5,1548137663000
1548137681984.3798828125,4,95.4700000000,A01A3A,5,1548137663000
1548137682000.0000000000,4,85.8900000000,A01A3A,5,1548137663000
1548137682015.6201171875,4,73.1200000000,A01A3A,5,1548137663000
1548137682031.2500000000,4,57.4900000000,A01A3A,5,1548137663000
1548137682046.8798828125,4,40.3700000000,A01A3A,5,1548137663000
1548137682062.5000000000,4,24.0500000000,A01A3A,5,1548137663000
1548137682078.1201171875,4,11.2100000000,A01A3A,5,1548137663000
1548137682093.7500000000,4,3.8600000000,A01A3A,5,1548137663000
1548137682109.3798828125,4,2.5100000000,A01A3A,5,1548137663000
1548137682125.0000000000,4,5.9100000000,A01A3A,5,1548137663000
1548137682140.6201171875,4,11.6400000000,A01A3A,5,1548137663000
1548137682156.2500000000,4,17.2100000000,A01A3A,5,1548137663000
1548137682171.8798828125,4,21.1100000000,A01A3A,5,1548137663000
1548137682187.5000000000,4,23.1800000000,A01A3A,5,1548137663000
1548137682203.1201171875,4,24.3100000000,A01A3A,5,1548137663000
1548137682218.7500000000,4,25.6100000000,A01A3A,5,1548137663000
1548137682234.3798828125,4,27.6100000000,A01A3A,5,1548137663000
1548137682250.0000000000,4,29.9600000000,A01A3A,5,1548137663000
1548137682265.6201171875,4,31.7200000000,A01A3A,5,1548137663000
1548137682281.2500000000,4,31.8300000000,A01A3A,5,1548137663000
1548137682296.8798828125,4,29.6400000000,A01A3A,5,1548137663000
1548137682312.5000000000,4,25.0400000000,A01A3A,5,1548137663000
1548137682328.1201171875,4,18.2800000000,A01A3A,5,1548137663000
1548137682343.7500000000,4,9.7500000000,A01A3A,5,1548137663000
1548137682359.3798828125,4,-0.1400000000,A01A3A,5,1548137663000
1548137682375.0000000000,4,-10.8800000000,A01A3A,5,1548137663000
1548137682390.6201171875,4,-21.7400000000,A01A3A,5,1548137663000
1548137682406.2500000000,4,-31.8700000000,A01A3A,5,1548137663000
1548137682421.8798828125,4,-40.7200000000,A01A3A,5,1548137663000
1548137682437.5000000000,4,-48.2500000000,A01A3A,5,1548137663000
1548137682453.1201171875,4,-55.2400000000,A01A3A,5,1548137663000
1548137682468.7500000000,4,-62.9900000000,A01A3A,5,1548137663000
1548137682484.3798828125,4,-72.8100000000,A01A3A,5,1548137663000
1548137682500.0000000000,4,-85.4200000000,A01A3A,5,1548137663000
1548137682515.6201171875,4,-100.6200000000,A01A3A,5,1548137663000
1548137682531.2500000000,4,-117.1700000000,A01A3A,5,1548137663000
1548137682546.8798828125,4,-133.1300000000,A01A3A,5,1548137663000
1548137682562.5000000000,4,-146.2700000000,A01A3A,5,1548137663000
1548137682578.1201171875,4,-154.5600000000,A01A3A,5,1548137663000
1548137682593.7500000000,4,-156.5600000000,A01A3A,5,1548137663000
1548137682609.3798828125,4,-151.7200000000,A01A3A,5,1548137663000
1548137682625.0000000000,4,-140.6800000000,A01A3A,5,1548137663000
1548137682640.6201171875,4,-125.3600000000,A01A3A,5,1548137663000
1548137682656.2500000000,4,-108.7300000000,A01A3A,5,1548137663000
1548137682671.8798828125,4,-94.1100000000,A01A3A,5,1548137663000
1548137682687.5000000000,4,-84.2500000000,A01A3A,5,1548137663000
1548137682703.1201171875,4,-80.2900000000,A01A3A,5,1548137663000
1548137682718.7500000000,4,-81.4200000000,A01A3A,5,1548137663000
1548137682734.3798828125,4,-85.1700000000,A01A3A,5,1548137663000
1548137682750.0000000000,4,-88.4300000000,A01A3A,5,1548137663000
1548137682765.6201171875,4,-88.5400000000,A01A3A,5,1548137663000
1548137682781.2500000000,4,-84.1900000000,A01A3A,5,1548137663000
1548137682796.8798828125,4,-75.8200000000,A01A3A,5,1548137663000
1548137682812.5000000000,4,-65.4300000000,A01A3A,5,1548137663000
1548137682828.1201171875,4,-55.9700000000,A01A3A,5,1548137663000
1548137682843.7500000000,4,-50.3200000000,A01A3A,5,1548137663000
1548137682859.3798828125,4,-50.2000000000,A01A3A,5,1548137663000
1548137682875.0000000000,4,-55.4000000000,A01A3A,5,1548137663000
1548137682890.6201171875,4,-63.6500000000,A01A3A,5,1548137663000
1548137682906.2500000000,4,-71.3400000000,A01A3A,5,1548137663000
1548137682921.8798828125,4,-74.9900000000,A01A3A,5,1548137663000
1548137682937.5000000000,4,-72.7200000000,A01A3A,5,1548137663000
1548137682953.1201171875,4,-65.1100000000,A01A3A,5,1548137663000
1548137682968.7500000000,4,-54.9000000000,A01A3A,5,1548137663000
1548137682984.3798828125,4,-45.6300000000,A01A3A,5,1548137663000
1548137683000.0000000000,4,-39.9500000000,A01A3A,5,1548137663000
1548137683015.6201171875,4,-38.5300000000,A01A3A,5,1548137663000
1548137683031.2500000000,4,-39.9800000000,A01A3A,5,1548137663000
1548137683046.8798828125,4,-41.7600000000,A01A3A,5,1548137663000
1548137683062.5000000000,4,-41.4600000000,A01A3A,5,1548137663000
1548137683078.1201171875,4,-37.7500000000,A01A3A,5,1548137663000
1548137683093.7500000000,4,-30.7600000000,A01A3A,5,1548137663000
1548137683109.3798828125,4,-21.7500000000,A01A3A,5,1548137663000
1548137683125.0000000000,4,-12.6600000000,A01A3A,5,1548137663000
1548137683140.6201171875,4,-5.4800000000,A01A3A,5,1548137663000
1548137683156.2500000000,4,-1.4100000000,A01A3A,5,1548137663000
1548137683171.8798828125,4,-0.3400000000,A01A3A,5,1548137663000
1548137683187.5000000000,4,-0.4300000000,A01A3A,5,1548137663000
1548137683203.1201171875,4,1.5900000000,A01A3A,5,1548137663000
1548137683218.7500000000,4,9.2400000000,A01A3A,5,1548137663000
1548137683234.3798828125,4,24.8300000000,A01A3A,5,1548137663000
1548137683250.0000000000,4,48.0300000000,A01A3A,5,1548137663000
1548137683265.6201171875,4,75.3700000000,A01A3A,5,1548137663000
1548137683281.2500000000,4,101.1000000000,A01A3A,5,1548137663000
1548137683296.8798828125,4,119.3200000000,A01A3A,5,1548137663000
1548137683312.5000000000,4,126.5200000000,A01A3A,5,1548137663000
1548137683328.1201171875,4,123.5300000000,A01A3A,5,1548137663000
1548137683343.7500000000,4,115.6000000000,A01A3A,5,1548137663000
1548137683359.3798828125,4,110.8400000000,A01A3A,5,1548137663000
1548137683375.0000000000,4,116.9800000000,A01A3A,5,1548137663000
1548137683390.6201171875,4,138.1800000000,A01A3A,5,1548137663000
1548137683406.2500000000,4,173.0200000000,A01A3A,5,1548137663000
1548137683421.8798828125,4,214.6200000000,A01A3A,5,1548137663000
1548137683437.5000000000,4,252.8900000000,A01A3A,5,1548137663000
1548137683453.1201171875,4,277.7600000000,A01A3A,5,1548137663000
1548137683468.7500000000,4,282.4200000000,A01A3A,5,1548137663000
1548137683484.3798828125,4,265.0600000000,A01A3A,5,1548137663000
1548137683500.0000000000,4,229.0100000000,A01A3A,5,1548137663000
1548137683515.6201171875,4,181.1800000000,A01A3A,5,1548137663000
1548137683531.2500000000,4,129.8200000000,A01A3A,5,1548137663000
1548137683546.8798828125,4,82.5400000000,A01A3A,5,1548137663000
1548137683562.5000000000,4,44.7900000000,A01A3A,5,1548137663000
1548137683578.1201171875,4,19.4000000000,A01A3A,5,1548137663000
1548137683593.7500000000,4,6.5500000000,A01A3A,5,1548137663000
1548137683609.3798828125,4,4.1200000000,A01A3A,5,1548137663000
1548137683625.0000000000,4,8.2100000000,A01A3A,5,1548137663000
1548137683640.6201171875,4,13.8200000000,A01A3A,5,1548137663000
1548137683656.2500000000,4,15.8800000000,A01A3A,5,1548137663000
1548137683671.8798828125,4,10.3800000000,A01A3A,5,1548137663000
1548137683687.5000000000,4,-4.4000000000,A01A3A,5,1548137663000
1548137683703.1201171875,4,-27.1700000000,A01A3A,5,1548137663000
1548137683718.7500000000,4,-53.8300000000,A01A3A,5,1548137663000
1548137683734.3798828125,4,-78.6100000000,A01A3A,5,1548137663000
1548137683750.0000000000,4,-95.8500000000,A01A3A,5,1548137663000
1548137683765.6201171875,4,-101.7800000000,A01A3A,5,1548137663000
1548137683781.2500000000,4,-95.5800000000,A01A3A,5,1548137663000
1548137683796.8798828125,4,-79.3800000000,A01A3A,5,1548137663000
1548137683812.5000000000,4,-57.1300000000,A01A3A,5,1548137663000
1548137683828.1201171875,4,-33.2100000000,A01A3A,5,1548137663000
1548137683843.7500000000,4,-11.1800000000,A01A3A,5,1548137663000
1548137683859.3798828125,4,6.8000000000,A01A3A,5,1548137663000
1548137683875.0000000000,4,19.9400000000,A01A3A,5,1548137663000
1548137683890.6201171875,4,28.3100000000,A01A3A,5,1548137663000
1548137683906.2500000000,4,32.4400000000,A01A3A,5,1548137663000
1548137683921.8798828125,4,33.0600000000,A01A3A,5,1548137663000
1548137683937.5000000000,4,30.9700000000,A01A3A,5,1548137663000
1548137683953.1201171875,4,26.9800000000,A01A3A,5,1548137663000
1548137683968.7500000000,4,21.7900000000,A01A3A,5,1548137663000
1548137683984.3798828125,4,15.9200000000,A01A3A,5,1548137663000
1548137684000.0000000000,4,9.7200000000,A01A3A,5,1548137663000
1548137684015.6201171875,4,3.5200000000,A01A3A,5,1548137663000
1548137684031.2500000000,4,-2.2000000000,A01A3A,5,1548137663000
1548137684046.8798828125,4,-6.6700000000,A01A3A,5,1548137663000
1548137684062.5000000000,4,-9.0400000000,A01A3A,5,1548137663000
1548137684078.1201171875,4,-8.6700000000,A01A3A,5,1548137663000
1548137684093.7500000000,4,-5.4600000000,A01A3A,5,1548137663000
1548137684109.3798828125,4,-0.0500000000,A01A3A,5,1548137663000
1548137684125.0000000000,4,6.2900000000,A01A3A,5,1548137663000
1548137684140.6201171875,4,11.9200000000,A01A3A,5,1548137663000
1548137684156.2500000000,4,15.3200000000,A01A3A,5,1548137663000
1548137684171.8798828125,4,15.3000000000,A01A3A,5,1548137663000
1548137684187.5000000000,4,11.2600000000,A01A3A,5,1548137663000
1548137684203.1201171875,4,3.3800000000,A01A3A,5,1548137663000
1548137684218.7500000000,4,-7.5000000000,A01A3A,5,1548137663000
1548137684234.3798828125,4,-19.9400000000,A01A3A,5,1548137663000
1548137684250.0000000000,4,-32.2100000000,A01A3A,5,1548137663000
1548137684265.6201171875,4,-42.7100000000,A01A3A,5,1548137663000
1548137684281.2500000000,4,-50.3800000000,A01A3A,5,1548137663000
1548137684296.8798828125,4,-54.9500000000,A01A3A,5,1548137663000
1548137684312.5000000000,4,-56.9000000000,A01A3A,5,1548137663000
1548137684328.1201171875,4,-57.2100000000,A01A3A,5,1548137663000
1548137684343.7500000000,4,-56.9300000000,A01A3A,5,1548137663000
1548137684359.3798828125,4,-56.9000000000,A01A3A,5,1548137663000
1548137684375.0000000000,4,-57.4300000000,A01A3A,5,1548137663000
1548137684390.6201171875,4,-58.3700000000,A01A3A,5,1548137663000
1548137684406.2500000000,4,-59.1800000000,A01A3A,5,1548137663000
1548137684421.8798828125,4,-59.1800000000,A01A3A,5,1548137663000
1548137684437.5000000000,4,-57.8000000000,A01A3A,5,1548137663000
1548137684453.1201171875,4,-54.7800000000,A01A3A,5,1548137663000
1548137684468.7500000000,4,-50.2700000000,A01A3A,5,1548137663000
1548137684484.3798828125,4,-44.8100000000,A01A3A,5,1548137663000
1548137684500.0000000000,4,-39.1700000000,A01A3A,5,1548137663000
1548137684515.6201171875,4,-34.1200000000,A01A3A,5,1548137663000
1548137684531.2500000000,4,-30.1600000000,A01A3A,5,1548137663000
1548137684546.8798828125,4,-27.3600000000,A01A3A,5,1548137663000
1548137684562.5000000000,4,-25.3300000000,A01A3A,5,1548137663000
1548137684578.1201171875,4,-23.4400000000,A01A3A,5,1548137663000
1548137684593.7500000000,4,-21.0800000000,A01A3A,5,1548137663000
1548137684609.3798828125,4,-17.9300000000,A01A3A,5,1548137663000
1548137684625.0000000000,4,-13.9400000000,A01A3A,5,1548137663000
1548137684640.6201171875,4,-9.3300000000,A01A3A,5,1548137663000
1548137684656.2500000000,4,-4.3700000000,A01A3A,5,1548137663000
1548137684671.8798828125,4,0.6700000000,A01A3A,5,1548137663000
1548137684687.5000000000,4,5.5000000000,A01A3A,5,1548137663000
1548137684703.1201171875,4,9.8700000000,A01A3A,5,1548137663000
1548137684718.7500000000,4,13.4700000000,A01A3A,5,1548137663000
1548137684734.3798828125,4,16.1100000000,A01A3A,5,1548137663000
1548137684750.0000000000,4,17.7500000000,A01A3A,5,1548137663000
1548137684765.6201171875,4,18.5900000000,A01A3A,5,1548137663000
1548137684781.2500000000,4,18.9400000000,A01A3A,5,1548137663000
1548137684796.8798828125,4,19.0800000000,A01A3A,5,1548137663000
1548137684812.5000000000,4,19.1500000000,A01A3A,5,1548137663000
1548137684828.1201171875,4,19.0400000000,A01A3A,5,1548137663000
1548137684843.7500000000,4,18.5100000000,A01A3A,5,1548137663000
1548137684859.3798828125,4,17.3600000000,A01A3A,5,1548137663000
1548137684875.0000000000,4,15.5400000000,A01A3A,5,1548137663000
1548137684890.6201171875,4,13.1800000000,A01A3A,5,1548137663000
1548137684906.2500000000,4,10.5300000000,A01A3A,5,1548137663000
1548137684921.8798828125,4,7.8500000000,A01A3A,5,1548137663000
1548137684937.5000000000,4,5.3200000000,A01A3A,5,1548137663000
1548137684953.1201171875,4,3.0100000000,A01A3A,5,1548137663000
1548137684968.7500000000,4,0.7900000000,A01A3A,5,1548137663000
1548137684984.3798828125,4,-1.6200000000,A01A3A,5,1548137663000
1548137685000.0000000000,4,-4.6100000000,A01A3A,5,1548137663000
1548137685015.6201171875,4,-8.4500000000,A01A3A,5,1548137663000
1548137685031.2500000000,4,-13.0300000000,A01A3A,5,1548137663000
1548137685046.8798828125,4,-17.8000000000,A01A3A,5,1548137663000
1548137685062.5000000000,4,-21.8100000000,A01A3A,5,1548137663000
1548137685078.1201171875,4,-24.0600000000,A01A3A,5,1548137663000
1548137685093.7500000000,4,-23.8200000000,A01A3A,5,1548137663000
1548137685109.3798828125,4,-20.9600000000,A01A3A,5,1548137663000
1548137685125.0000000000,4,-15.9200000000,A01A3A,5,1548137663000
1548137685140.6201171875,4,-9.5800000000,A01A3A,5,1548137663000
1548137685156.2500000000,4,-3.0200000000,A01A3A,5,1548137663000
1548137685171.8798828125,4,2.7000000000,A01A3A,5,1548137663000
1548137685187.5000000000,4,6.7500000000,A01A3A,5,1548137663000
1548137685203.1201171875,4,8.6800000000,A01A3A,5,1548137663000
1548137685218.7500000000,4,8.5900000000,A01A3A,5,1548137663000
1548137685234.3798828125,4,7.0800000000,A01A3A,5,1548137663000
1548137685250.0000000000,4,5.1400000000,A01A3A,5,1548137663000
1548137685265.6201171875,4,3.8100000000,A01A3A,5,1548137663000
1548137685281.2500000000,4,3.8200000000,A01A3A,5,1548137663000
1548137685296.8798828125,4,5.3000000000,A01A3A,5,1548137663000
1548137685312.5000000000,4,7.8500000000,A01A3A,5,1548137663000
1548137685328.1201171875,4,10.7400000000,A01A3A,5,1548137663000
1548137685343.7500000000,4,13.2700000000,A01A3A,5,1548137663000
1548137685359.3798828125,4,15.0500000000,A01A3A,5,1548137663000
1548137685375.0000000000,4,15.9800000000,A01A3A,5,1548137663000
1548137685390.6201171875,4,16.1200000000,A01A3A,5,1548137663000
1548137685406.2500000000,4,15.4900000000,A01A3A,5,1548137663000
1548137685421.8798828125,4,13.9600000000,A01A3A,5,1548137663000
1548137685437.5000000000,4,11.3900000000,A01A3A,5,1548137663000
1548137685453.1201171875,4,7.8100000000,A01A3A,5,1548137663000
1548137685468.7500000000,4,3.5200000000,A01A3A,5,1548137663000
1548137685484.3798828125,4,-0.9700000000,A01A3A,5,1548137663000
1548137685500.0000000000,4,-5.1100000000,A01A3A,5,1548137663000
1548137685515.6201171875,4,-8.5700000000,A01A3A,5,1548137663000
1548137685531.2500000000,4,-11.3000000000,A01A3A,5,1548137663000
1548137685546.8798828125,4,-13.5300000000,A01A3A,5,1548137663000
1548137685562.5000000000,4,-15.5700000000,A01A3A,5,1548137663000
1548137685578.1201171875,4,-17.5000000000,A01A3A,5,1548137663000
1548137685593.7500000000,4,-19.0900000000,A01A3A,5,1548137663000
1548137685609.3798828125,4,-19.9000000000,A01A3A,5,1548137663000
1548137685625.0000000000,4,-19.4500000000,A01A3A,5,1548137663000
1548137685640.6201171875,4,-17.6400000000,A01A3A,5,1548137663000
1548137685656.2500000000,4,-14.7900000000,A01A3A,5,1548137663000
1548137685671.8798828125,4,-11.6600000000,A01A3A,5,1548137663000
1548137685687.5000000000,4,-9.1300000000,A01A3A,5,1548137663000
1548137685703.1201171875,4,-7.9100000000,A01A3A,5,1548137663000
1548137685718.7500000000,4,-8.2300000000,A01A3A,5,1548137663000
1548137685734.3798828125,4,-9.8300000000,A01A3A,5,1548137663000
1548137685750.0000000000,4,-12.0400000000,A01A3A,5,1548137663000
1548137685765.6201171875,4,-14.0600000000,A01A3A,5,1548137663000
1548137685781.2500000000,4,-15.2600000000,A01A3A,5,1548137663000
1548137685796.8798828125,4,-15.3500000000,A01A3A,5,1548137663000
1548137685812.5000000000,4,-14.3500000000,A01A3A,5,1548137663000
1548137685828.1201171875,4,-12.4400000000,A01A3A,5,1548137663000
1548137685843.7500000000,4,-9.7900000000,A01A3A,5,1548137663000
1548137685859.3798828125,4,-6.4500000000,A01A3A,5,1548137663000
1548137685875.0000000000,4,-2.4200000000,A01A3A,5,1548137663000
1548137685890.6201171875,4,2.3200000000,A01A3A,5,1548137663000
1548137685906.2500000000,4,7.5600000000,A01A3A,5,1548137663000
1548137685921.8798828125,4,12.8500000000,A01A3A,5,1548137663000
1548137685937.5000000000,4,17.5800000000,A01A3A,5,1548137663000
1548137685953.1201171875,4,21.2400000000,A01A3A,5,1548137663000
1548137685968.7500000000,4,23.5200000000,A01A3A,5,1548137663000
1548137685984.3798828125,4,24.4100000000,A01A3A,5,1548137663000
1548137686000.0000000000,4,24.1400000000,A01A3A,5,1548137663000
1548137686015.6201171875,4,23.0200000000,A01A3A,5,1548137663000
1548137686031.2500000000,4,21.3700000000,A01A3A,5,1548137663000
1548137686046.8798828125,4,19.4100000000,A01A3A,5,1548137663000
1548137686062.5000000000,4,17.3200000000,A01A3A,5,1548137663000
1548137686078.1201171875,4,15.2400000000,A01A3A,5,1548137663000
1548137686093.7500000000,4,13.3300000000,A01A3A,5,1548137663000
1548137686109.3798828125,4,11.7100000000,A01A3A,5,1548137663000
1548137686125.0000000000,4,10.3400000000,A01A3A,5,1548137663000
1548137686140.6201171875,4,9.0300000000,A01A3A,5,1548137663000
1548137686156.2500000000,4,7.4700000000,A01A3A,5,1548137663000
1548137686171.8798828125,4,5.5800000000,A01A3A,5,1548137663000
1548137686187.5000000000,4,3.4500000000,A01A3A,5,1548137663000
1548137686203.1201171875,4,1.3600000000,A01A3A,5,1548137663000
1548137686218.7500000000,4,-0.2900000000,A01A3A,5,1548137663000
1548137686234.3798828125,4,-1.1700000000,A01A3A,5,1548137663000
1548137686250.0000000000,4,-1.1200000000,A01A3A,5,1548137663000
1548137686265.6201171875,4,-0.3200000000,A01A3A,5,1548137663000
1548137686281.2500000000,4,0.8900000000,A01A3A,5,1548137663000
1548137686296.8798828125,4,2.1200000000,A01A3A,5,1548137663000
1548137686312.5000000000,4,3.4200000000,A01A3A,5,1548137663000
1548137686328.1201171875,4,4.8900000000,A01A3A,5,1548137663000
1548137686343.7500000000,4,6.4900000000,A01A3A,5,1548137663000
1548137686359.3798828125,4,8.0300000000,A01A3A,5,1548137663000
1548137686375.0000000000,4,9.4000000000,A01A3A,5,1548137663000
1548137686390.6201171875,4,10.4800000000,A01A3A,5,1548137663000
1548137686406.2500000000,4,11.2100000000,A01A3A,5,1548137663000
1548137686421.8798828125,4,11.3800000000,A01A3A,5,1548137663000
1548137686437.5000000000,4,10.7900000000,A01A3A,5,1548137663000
1548137686453.1201171875,4,9.9100000000,A01A3A,5,1548137663000
1548137686468.7500000000,4,9.0300000000,A01A3A,5,1548137663000
1548137686484.3798828125,4,8.2800000000,A01A3A,5,1548137663000
1548137686500.0000000000,4,7.8600000000,A01A3A,5,1548137663000
1548137686515.6201171875,4,8.3900000000,A01A3A,5,1548137663000
1548137686531.2500000000,4,10.6700000000,A01A3A,5,1548137663000
1548137686546.8798828125,4,15.1000000000,A01A3A,5,1548137663000
1548137686562.5000000000,4,21.3600000000,A01A3A,5,1548137663000
1548137686578.1201171875,4,28.5000000000,A01A3A,5,1548137663000
1548137686593.7500000000,4,36.3400000000,A01A3A,5,1548137663000
1548137686609.3798828125,4,44.3500000000,A01A3A,5,1548137663000
1548137686625.0000000000,4,51.7600000000,A01A3A,5,1548137663000
1548137686640.6201171875,4,57.9300000000,A01A3A,5,1548137663000
1548137686656.2500000000,4,62.9900000000,A01A3A,5,1548137663000
1548137686671.8798828125,4,67.6400000000,A01A3A,5,1548137663000
1548137686687.5000000000,4,72.6500000000,A01A3A,5,1548137663000
1548137686703.1201171875,4,78.5000000000,A01A3A,5,1548137663000
1548137686718.7500000000,4,85.5000000000,A01A3A,5,1548137663000
1548137686734.3798828125,4,94.7600000000,A01A3A,5,1548137663000
1548137686750.0000000000,4,106.0300000000,A01A3A,5,1548137663000
1548137686765.6201171875,4,117.2400000000,A01A3A,5,1548137663000
1548137686781.2500000000,4,125.2600000000,A01A3A,5,1548137663000
1548137686796.8798828125,4,127.7900000000,A01A3A,5,1548137663000
1548137686812.5000000000,4,124.0200000000,A01A3A,5,1548137663000
1548137686828.1201171875,4,114.5600000000,A01A3A,5,1548137663000
1548137686843.7500000000,4,101.1700000000,A01A3A,5,1548137663000
1548137686859.3798828125,4,78.0800000000,A01A3A,5,1548137663000
1548137686875.0000000000,4,45.3100000000,A01A3A,5,1548137663000
1548137686890.6201171875,4,7.7900000000,A01A3A,5,1548137663000
1548137686906.2500000000,4,-27.1400000000,A01A3A,5,1548137663000
1548137686921.8798828125,4,-54.1400000000,A01A3A,5,1548137663000
1548137686937.5000000000,4,-71.0200000000,A01A3A,5,1548137663000
1548137686953.1201171875,4,-78.8300000000,A01A3A,5,1548137663000
1548137686968.7500000000,4,-80.8500000000,A01A3A,5,1548137663000
1548137686984.3798828125,4,-81.4000000000,A01A3A,5,1548137663000
1548137687000.0000000000,4,-83.2600000000,A01A3A,5,1548137663000
1548137687015.6201171875,4,-86.4700000000,A01A3A,5,1548137663000
1548137687031.2500000000,4,-90.7500000000,A01A3A,5,1548137663000
1548137687046.8798828125,4,-96.2400000000,A01A3A,5,1548137663000
1548137687062.5000000000,4,-105.1200000000,A01A3A,5,1548137663000
1548137687078.1201171875,4,-118.7100000000,A01A3A,5,1548137663000
1548137687093.7500000000,4,-137.6100000000,A01A3A,5,1548137663000
1548137687109.3798828125,4,-161.6800000000,A01A3A,5,1548137663000
1548137687125.0000000000,4,-189.0300000000,A01A3A,5,1548137663000
1548137687140.6201171875,4,-213.3800000000,A01A3A,5,1548137663000
1548137687156.2500000000,4,-226.0000000000,A01A3A,5,1548137663000
1548137687171.8798828125,4,-221.0000000000,A01A3A,5,1548137663000
1548137687187.5000000000,4,-197.9100000000,A01A3A,5,1548137663000
1548137687203.1201171875,4,-160.9800000000,A01A3A,5,1548137663000
1548137687218.7500000000,4,-114.6500000000,A01A3A,5,1548137663000
1548137687234.3798828125,4,-60.9200000000,A01A3A,5,1548137663000
1548137687250.0000000000,4,-4.1300000000,A01A3A,5,1548137663000
1548137687265.6201171875,4,50.5700000000,A01A3A,5,1548137663000
1548137687281.2500000000,4,100.4100000000,A01A3A,5,1548137663000
1548137687296.8798828125,4,143.1200000000,A01A3A,5,1548137663000
1548137687312.5000000000,4,174.9700000000,A01A3A,5,1548137663000
1548137687328.1201171875,4,191.4500000000,A01A3A,5,1548137663000
1548137687343.7500000000,4,182.5500000000,A01A3A,5,1548137663000
1548137687359.3798828125,4,147.4800000000,A01A3A,5,1548137663000
1548137687375.0000000000,4,96.1600000000,A01A3A,5,1548137663000
1548137687390.6201171875,4,47.8700000000,A01A3A,5,1548137663000
1548137687406.2500000000,4,4.3900000000,A01A3A,5,1548137663000
1548137687421.8798828125,4,-39.0500000000,A01A3A,5,1548137663000
1548137687437.5000000000,4,-88.0900000000,A01A3A,5,1548137663000
1548137687453.1201171875,4,-144.0200000000,A01A3A,5,1548137663000
1548137687468.7500000000,4,-203.6600000000,A01A3A,5,1548137663000
1548137687484.3798828125,4,-259.8200000000,A01A3A,5,1548137663000
1548137687500.0000000000,4,-302.6300000000,A01A3A,5,1548137663000
1548137687515.6201171875,4,-318.2400000000,A01A3A,5,1548137663000
1548137687531.2500000000,4,-301.7900000000,A01A3A,5,1548137663000
1548137687546.8798828125,4,-263.0500000000,A01A3A,5,1548137663000
1548137687562.5000000000,4,-218.9100000000,A01A3A,5,1548137663000
1548137687578.1201171875,4,-183.8300000000,A01A3A,5,1548137663000
1548137687593.7500000000,4,-163.2100000000,A01A3A,5,1548137663000
1548137687609.3798828125,4,-154.0000000000,A01A3A,5,1548137663000
1548137687625.0000000000,4,-149.5500000000,A01A3A,5,1548137663000
1548137687640.6201171875,4,-143.5300000000,A01A3A,5,1548137663000
1548137687656.2500000000,4,-134.2300000000,A01A3A,5,1548137663000
1548137687671.8798828125,4,-124.0300000000,A01A3A,5,1548137663000
1548137687687.5000000000,4,-117.4100000000,A01A3A,5,1548137663000
1548137687703.1201171875,4,-115.0400000000,A01A3A,5,1548137663000
1548137687718.7500000000,4,-114.1300000000,A01A3A,5,1548137663000
1548137687734.3798828125,4,-110.5900000000,A01A3A,5,1548137663000
1548137687750.0000000000,4,-101.7000000000,A01A3A,5,1548137663000
1548137687765.6201171875,4,-86.8600000000,A01A3A,5,1548137663000
1548137687781.2500000000,4,-66.1800000000,A01A3A,5,1548137663000
1548137687796.8798828125,4,-43.4700000000,A01A3A,5,1548137663000
1548137687812.5000000000,4,-22.6100000000,A01A3A,5,1548137663000
1548137687828.1201171875,4,-6.8500000000,A01A3A,5,1548137663000
1548137687843.7500000000,4,4.0500000000,A01A3A,5,1548137663000
1548137687859.3798828125,4,12.7600000000,A01A3A,5,1548137663000
1548137687875.0000000000,4,22.4400000000,A01A3A,5,1548137663000
1548137687890.6201171875,4,34.9000000000,A01A3A,5,1548137663000
1548137687906.2500000000,4,50.3000000000,A01A3A,5,1548137663000
1548137687921.8798828125,4,67.7900000000,A01A3A,5,1548137663000
1548137687937.5000000000,4,85.8100000000,A01A3A,5,1548137663000
1548137687953.1201171875,4,102.6800000000,A01A3A,5,1548137663000
1548137687968.7500000000,4,116.8500000000,A01A3A,5,1548137663000
1548137687984.3798828125,4,128.7400000000,A01A3A,5,1548137663000
1548137688000.0000000000,4,140.7400000000,A01A3A,5,1548137663000
1548137688015.6201171875,4,156.6200000000,A01A3A,5,1548137663000
1548137688031.2500000000,4,180.3400000000,A01A3A,5,1548137663000
1548137688046.8798828125,4,214.3100000000,A01A3A,5,1548137663000
1548137688062.5000000000,4,257.8700000000,A01A3A,5,1548137663000
1548137688078.1201171875,4,305.8100000000,A01A3A,5,1548137663000
1548137688093.7500000000,4,349.0100000000,A01A3A,5,1548137663000
1548137688109.3798828125,4,376.6700000000,A01A3A,5,1548137663000
1548137688125.0000000000,4,380.4500000000,A01A3A,5,1548137663000
1548137688140.6201171875,4,357.0500000000,A01A3A,5,1548137663000
1548137688156.2500000000,4,308.6100000000,A01A3A,5,1548137663000
1548137688171.8798828125,4,241.0600000000,A01A3A,5,1548137663000
1548137688187.5000000000,4,161.9200000000,A01A3A,5,1548137663000
1548137688203.1201171875,4,78.9500000000,A01A3A,5,1548137663000
1548137688218.7500000000,4,-0.2800000000,A01A3A,5,1548137663000
1548137688234.3798828125,4,-68.0000000000,A01A3A,5,1548137663000
1548137688250.0000000000,4,-117.0100000000,A01A3A,5,1548137663000
1548137688265.6201171875,4,-142.2200000000,A01A3A,5,1548137663000
1548137688281.2500000000,4,-142.7600000000,A01A3A,5,1548137663000
1548137688296.8798828125,4,-122.9400000000,A01A3A,5,1548137663000
1548137688312.5000000000,4,-91.0100000000,A01A3A,5,1548137663000
1548137688328.1201171875,4,-55.9600000000,A01A3A,5,1548137663000
1548137688343.7500000000,4,-23.9100000000,A01A3A,5,1548137663000
1548137688359.3798828125,4,3.7900000000,A01A3A,5,1548137663000
1548137688375.0000000000,4,30.0100000000,A01A3A,5,1548137663000
1548137688390.6201171875,4,58.8300000000,A01A3A,5,1548137663000
1548137688406.2500000000,4,92.6700000000,A01A3A,5,1548137663000
1548137688421.8798828125,4,130.5000000000,A01A3A,5,1548137663000
1548137688437.5000000000,4,168.2300000000,A01A3A,5,1548137663000
1548137688453.1201171875,4,200.6500000000,A01A3A,5,1548137663000
1548137688468.7500000000,4,223.6300000000,A01A3A,5,1548137663000
1548137688484.3798828125,4,235.3100000000,A01A3A,5,1548137663000
1548137688500.0000000000,4,235.9000000000,A01A3A,5,1548137663000
1548137688515.6201171875,4,226.9000000000,A01A3A,5,1548137663000
1548137688531.2500000000,4,209.9100000000,A01A3A,5,1548137663000
1548137688546.8798828125,4,185.9800000000,A01A3A,5,1548137663000
1548137688562.5000000000,4,156.0100000000,A01A3A,5,1548137663000
1548137688578.1201171875,4,121.1900000000,A01A3A,5,1548137663000
1548137688593.7500000000,4,83.0400000000,A01A3A,5,1548137663000
1548137688609.3798828125,4,42.7700000000,A01A3A,5,1548137663000
1548137688625.0000000000,4,0.7000000000,A01A3A,5,1548137663000
1548137688640.6201171875,4,-43.6400000000,A01A3A,5,1548137663000
1548137688656.2500000000,4,-90.1700000000,A01A3A,5,1548137663000
1548137688671.8798828125,4,-136.6800000000,A01A3A,5,1548137663000
1548137688687.5000000000,4,-178.0100000000,A01A3A,5,1548137663000
1548137688703.1201171875,4,-207.1300000000,A01A3A,5,1548137663000
1548137688718.7500000000,4,-217.7500000000,A01A3A,5,1548137663000
1548137688734.3798828125,4,-207.2100000000,A01A3A,5,1548137663000
1548137688750.0000000000,4,-177.5600000000,A01A3A,5,1548137663000
1548137688765.6201171875,4,-134.4300000000,A01A3A,5,1548137663000
1548137688781.2500000000,4,-84.3800000000,A01A3A,5,1548137663000
1548137688796.8798828125,4,-32.3500000000,A01A3A,5,1548137663000
1548137688812.5000000000,4,18.9400000000,A01A3A,5,1548137663000
1548137688828.1201171875,4,67.8500000000,A01A3A,5,1548137663000
1548137688843.7500000000,4,111.8800000000,A01A3A,5,1548137663000
1548137688859.3798828125,4,146.9200000000,A01A3A,5,1548137663000
1548137688875.0000000000,4,168.5400000000,A01A3A,5,1548137663000
1548137688890.6201171875,4,174.4800000000,A01A3A,5,1548137663000
1548137688906.2500000000,4,166.6300000000,A01A3A,5,1548137663000
1548137688921.8798828125,4,150.8000000000,A01A3A,5,1548137663000
1548137688937.5000000000,4,134.2400000000,A01A3A,5,1548137663000
1548137688953.1201171875,4,122.1600000000,A01A3A,5,1548137663000
1548137688968.7500000000,4,115.5100000000,A01A3A,5,1548137663000
1548137688984.3798828125,4,111.2200000000,A01A3A,5,1548137663000
1548137689000.0000000000,4,104.3600000000,A01A3A,5,1548137663000
1548137689015.6201171875,4,91.2500000000,A01A3A,5,1548137663000
1548137689031.2500000000,4,71.2900000000,A01A3A,5,1548137663000
1548137689046.8798828125,4,46.8700000000,A01A3A,5,1548137663000
1548137689062.5000000000,4,21.8100000000,A01A3A,5,1548137663000
1548137689078.1201171875,4,-0.4700000000,A01A3A,5,1548137663000
1548137689093.7500000000,4,-17.9500000000,A01A3A,5,1548137663000
1548137689109.3798828125,4,-29.8800000000,A01A3A,5,1548137663000
1548137689125.0000000000,4,-36.0800000000,A01A3A,5,1548137663000
1548137689140.6201171875,4,-36.6300000000,A01A3A,5,1548137663000
1548137689156.2500000000,4,-32.0100000000,A01A3A,5,1548137663000
1548137689171.8798828125,4,-23.7900000000,A01A3A,5,1548137663000
1548137689187.5000000000,4,-14.9900000000,A01A3A,5,1548137663000
1548137689203.1201171875,4,-9.6300000000,A01A3A,5,1548137663000
1548137689218.7500000000,4,-11.5900000000,A01A3A,5,1548137663000
1548137689234.3798828125,4,-23.4900000000,A01A3A,5,1548137663000
1548137689250.0000000000,4,-45.9500000000,A01A3A,5,1548137663000
1548137689265.6201171875,4,-77.5100000000,A01A3A,5,1548137663000
1548137689281.2500000000,4,-114.9600000000,A01A3A,5,1548137663000
1548137689296.8798828125,4,-153.8100000000,A01A3A,5,1548137663000
1548137689312.5000000000,4,-188.8700000000,A01A3A,5,1548137663000
1548137689328.1201171875,4,-215.1700000000,A01A3A,5,1548137663000
1548137689343.7500000000,4,-229.1500000000,A01A3A,5,1548137663000
1548137689359.3798828125,4,-229.9000000000,A01A3A,5,1548137663000
1548137689375.0000000000,4,-219.7300000000,A01A3A,5,1548137663000
1548137689390.6201171875,4,-203.5500000000,A01A3A,5,1548137663000
1548137689406.2500000000,4,-186.8800000000,A01A3A,5,1548137663000
1548137689421.8798828125,4,-173.4400000000,A01A3A,5,1548137663000
1548137689437.5000000000,4,-163.2500000000,A01A3A,5,1548137663000
1548137689453.1201171875,4,-152.7400000000,A01A3A,5,1548137663000
1548137689468.7500000000,4,-136.8700000000,A01A3A,5,1548137663000
1548137689484.3798828125,4,-112.0500000000,A01A3A,5,1548137663000
1548137689500.0000000000,4,-78.3300000000,A01A3A,5,1548137663000
1548137689515.6201171875,4,-39.5300000000,A01A3A,5,1548137663000
1548137689531.2500000000,4,-1.3100000000,A01A3A,5,1548137663000
1548137689546.8798828125,4,31.5300000000,A01A3A,5,1548137663000
1548137689562.5000000000,4,56.8400000000,A01A3A,5,1548137663000
1548137689578.1201171875,4,75.1400000000,A01A3A,5,1548137663000
1548137689593.7500000000,4,88.1500000000,A01A3A,5,1548137663000
1548137689609.3798828125,4,97.0900000000,A01A3A,5,1548137663000
1548137689625.0000000000,4,101.9000000000,A01A3A,5,1548137663000
1548137689640.6201171875,4,101.8700000000,A01A3A,5,1548137663000
1548137689656.2500000000,4,97.1900000000,A01A3A,5,1548137663000
1548137689671.8798828125,4,89.9300000000,A01A3A,5,1548137663000
1548137689687.5000000000,4,83.6700000000,A01A3A,5,1548137663000
1548137689703.1201171875,4,81.7300000000,A01A3A,5,1548137663000
1548137689718.7500000000,4,85.0700000000,A01A3A,5,1548137663000
1548137689734.3798828125,4,91.2700000000,A01A3A,5,1548137663000
1548137689750.0000000000,4,95.3200000000,A01A3A,5,1548137663000
1548137689765.6201171875,4,91.9200000000,A01A3A,5,1548137663000
1548137689781.2500000000,4,77.9500000000,A01A3A,5,1548137663000
1548137689796.8798828125,4,53.8900000000,A01A3A,5,1548137663000
1548137689812.5000000000,4,23.3600000000,A01A3A,5,1548137663000
1548137689828.1201171875,4,-8.6400000000,A01A3A,5,1548137663000
1548137689843.7500000000,4,-37.9200000000,A01A3A,5,1548137663000
1548137689859.3798828125,4,-62.4100000000,A01A3A,5,1548137663000
1548137689875.0000000000,4,-82.1400000000,A01A3A,5,1548137663000
1548137689890.6201171875,4,-98.1400000000,A01A3A,5,1548137663000
1548137689906.2500000000,4,-111.1500000000,A01A3A,5,1548137663000
1548137689921.8798828125,4,-121.0300000000,A01A3A,5,1548137663000
1548137689937.5000000000,4,-126.9300000000,A01A3A,5,1548137663000
1548137689953.1201171875,4,-128.0800000000,A01A3A,5,1548137663000
1548137689968.7500000000,4,-124.4900000000,A01A3A,5,1548137663000
1548137689984.3798828125,4,-117.1400000000,A01A3A,5,1548137663000
1548137690000.0000000000,4,-107.6500000000,A01A3A,5,1548137663000
1548137690015.6201171875,4,-97.6500000000,A01A3A,5,1548137663000
1548137690031.2500000000,4,-88.4000000000,A01A3A,5,1548137663000
1548137690046.8798828125,4,-80.6000000000,A01A3A,5,1548137663000
1548137690062.5000000000,4,-74.4300000000,A01A3A,5,1548137663000
1548137690078.1201171875,4,-69.7600000000,A01A3A,5,1548137663000
1548137690093.7500000000,4,-66.4000000000,A01A3A,5,1548137663000
1548137690109.3798828125,4,-64.2600000000,A01A3A,5,1548137663000
1548137690125.0000000000,4,-63.4300000000,A01A3A,5,1548137663000
1548137690140.6201171875,4,-64.0000000000,A01A3A,5,1548137663000
1548137690156.2500000000,4,-65.7400000000,A01A3A,5,1548137663000
1548137690171.8798828125,4,-67.7700000000,A01A3A,5,1548137663000
1548137690187.5000000000,4,-68.6400000000,A01A3A,5,1548137663000
1548137690203.1201171875,4,-66.7700000000,A01A3A,5,1548137663000
1548137690218.7500000000,4,-61.1000000000,A01A3A,5,1548137663000
1548137690234.3798828125,4,-51.7200000000,A01A3A,5,1548137663000
1548137690250.0000000000,4,-39.9900000000,A01A3A,5,1548137663000
1548137690265.6201171875,4,-27.9400000000,A01A3A,5,1548137663000
1548137690281.2500000000,4,-17.5500000000,A01A3A,5,1548137663000
1548137690296.8798828125,4,-9.8900000000,A01A3A,5,1548137663000
1548137690312.5000000000,4,-4.9600000000,A01A3A,5,1548137663000
1548137690328.1201171875,4,-1.9100000000,A01A3A,5,1548137663000
1548137690343.7500000000,4,0.2900000000,A01A3A,5,1548137663000
1548137690359.3798828125,4,2.3600000000,A01A3A,5,1548137663000
1548137690375.0000000000,4,4.4800000000,A01A3A,5,1548137663000
1548137690390.6201171875,4,6.4500000000,A01A3A,5,1548137663000
1548137690406.2500000000,4,7.9800000000,A01A3A,5,1548137663000
1548137690421.8798828125,4,8.9300000000,A01A3A,5,1548137663000
1548137690437.5000000000,4,9.4100000000,A01A3A,5,1548137663000
1548137690453.1201171875,4,9.7200000000,A01A3A,5,1548137663000
1548137690468.7500000000,4,10.1800000000,A01A3A,5,1548137663000
1548137690484.3798828125,4,11.0000000000,A01A3A,5,1548137663000
1548137690500.0000000000,4,12.2300000000,A01A3A,5,1548137663000
1548137690515.6201171875,4,13.7000000000,A01A3A,5,1548137663000
1548137690531.2500000000,4,15.1100000000,A01A3A,5,1548137663000
1548137690546.8798828125,4,16.0900000000,A01A3A,5,1548137663000
1548137690562.5000000000,4,16.4200000000,A01A3A,5,1548137663000
1548137690578.1201171875,4,16.1300000000,A01A3A,5,1548137663000
1548137690593.7500000000,4,15.4700000000,A01A3A,5,1548137663000
1548137690609.3798828125,4,14.8200000000,A01A3A,5,1548137663000
1548137690625.0000000000,4,14.4100000000,A01A3A,5,1548137663000
1548137690640.6201171875,4,14.1400000000,A01A3A,5,1548137663000
1548137690656.2500000000,4,13.5900000000,A01A3A,5,1548137663000
1548137690671.8798828125,4,12.2300000000,A01A3A,5,1548137663000
1548137690687.5000000000,4,9.7800000000,A01A3A,5,1548137663000
1548137690703.1201171875,4,6.4000000000,A01A3A,5,1548137663000
1548137690718.7500000000,4,2.7300000000,A01A3A,5,1548137663000
1548137690734.3798828125,4,-0.4500000000,A01A3A,5,1548137663000
1548137690750.0000000000,4,-2.6600000000,A01A3A,5,1548137663000
1548137690765.6201171875,4,-3.9700000000,A01A3A,5,1548137663000
1548137690781.2500000000,4,-5.0100000000,A01A3A,5,1548137663000
1548137690796.8798828125,4,-6.6100000000,A01A3A,5,1548137663000
1548137690812.5000000000,4,-9.3900000000,A01A3A,5,1548137663000
1548137690828.1201171875,4,-13.4600000000,A01A3A,5,1548137663000
1548137690843.7500000000,4,-18.3200000000,A01A3A,5,1548137663000
1548137690859.3798828125,4,-23.0900000000,A01A3A,5,1548137663000
1548137690875.0000000000,4,-26.8700000000,A01A3A,5,1548137663000
1548137690890.6201171875,4,-28.9700000000,A01A3A,5,1548137663000
1548137690906.2500000000,4,-29.0500000000,A01A3A,5,1548137663000
1548137690921.8798828125,4,-27.1000000000,A01A3A,5,1548137663000
1548137690937.5000000000,4,-23.3300000000,A01A3A,5,1548137663000
1548137690953.1201171875,4,-18.1400000000,A01A3A,5,1548137663000
1548137690968.7500000000,4,-11.9800000000,A01A3A,5,1548137663000
1548137690984.3798828125,4,-5.4200000000,A01A3A,5,1548137663000
1548137691000.0000000000,4,0.9100000000,A01A3A,5,1548137663000
1548137691015.6201171875,4,6.4700000000,A01A3A,5,1548137663000
1548137691031.2500000000,4,10.8300000000,A01A3A,5,1548137663000
1548137691046.8798828125,4,13.8200000000,A01A3A,5,1548137663000
1548137691062.5000000000,4,15.4500000000,A01A3A,5,1548137663000
1548137691078.1201171875,4,15.9200000000,A01A3A,5,1548137663000
1548137691093.7500000000,4,15.4900000000,A01A3A,5,1548137663000
1548137691109.3798828125,4,14.4100000000,A01A3A,5,1548137663000
1548137691125.0000000000,4,12.9400000000,A01A3A,5,1548137663000
1548137691140.6201171875,4,11.3800000000,A01A3A,5,1548137663000
1548137691156.2500000000,4,10.1200000000,A01A3A,5,1548137663000
1548137691171.8798828125,4,9.5400000000,A01A3A,5,1548137663000
1548137691187.5000000000,4,9.9100000000,A01A3A,5,1548137663000
1548137691203.1201171875,4,11.2200000000,A01A3A,5,1548137663000
1548137691218.7500000000,4,13.0800000000,A01A3A,5,1548137663000
1548137691234.3798828125,4,14.8400000000,A01A3A,5,1548137663000
1548137691250.0000000000,4,15.9000000000,A01A3A,5,1548137663000
1548137691265.6201171875,4,15.9500000000,A01A3A,5,1548137663000
1548137691281.2500000000,4,15.1400000000,A01A3A,5,1548137663000
1548137691296.8798828125,4,13.9800000000,A01A3A,5,1548137663000
1548137691312.5000000000,4,12.9700000000,A01A3A,5,1548137663000
1548137691328.1201171875,4,12.4200000000,A01A3A,5,1548137663000
1548137691343.7500000000,4,12.2200000000,A01A3A,5,1548137663000
1548137691359.3798828125,4,12.0400000000,A01A3A,5,1548137663000
1548137691375.0000000000,4,11.5500000000,A01A3A,5,1548137663000
1548137691390.6201171875,4,10.6900000000,A01A3A,5,1548137663000
1548137691406.2500000000,4,9.6200000000,A01A3A,5,1548137663000
1548137691421.8798828125,4,8.6800000000,A01A3A,5,1548137663000
1548137691437.5000000000,4,8.0300000000,A01A3A,5,1548137663000
1548137691453.1201171875,4,7.5900000000,A01A3A,5,1548137663000
1548137691468.7500000000,4,7.0600000000,A01A3A,5,1548137663000
1548137691484.3798828125,4,6.1400000000,A01A3A,5,1548137663000
1548137691500.0000000000,4,4.6500000000,A01A3A,5,1548137663000
1548137691515.6201171875,4,2.6700000000,A01A3A,5,1548137663000
1548137691531.2500000000,4,0.3200000000,A01A3A,5,1548137663000
1548137691546.8798828125,4,-2.4800000000,A01A3A,5,1548137663000
1548137691562.5000000000,4,-6.0400000000,A01A3A,5,1548137663000
1548137691578.1201171875,4,-10.8000000000,A01A3A,5,1548137663000
1548137691593.7500000000,4,-16.9400000000,A01A3A,5,1548137663000
1548137691609.3798828125,4,-24.0200000000,A01A3A,5,1548137663000
1548137691625.0000000000,4,-30.8600000000,A01A3A,5,1548137663000
1548137691640.6201171875,4,-35.8900000000,A01A3A,5,1548137663000
1548137691656.2500000000,4,-37.7400000000,A01A3A,5,1548137663000
1548137691671.8798828125,4,-35.8300000000,A01A3A,5,1548137663000
1548137691687.5000000000,4,-30.6300000000,A01A3A,5,1548137663000
1548137691703.1201171875,4,-23.4400000000,A01A3A,5,1548137663000
1548137691718.7500000000,4,-15.7500000000,A01A3A,5,1548137663000
1548137691734.3798828125,4,-8.6500000000,A01A3A,5,1548137663000
1548137691750.0000000000,4,-2.5300000000,A01A3A,5,1548137663000
1548137691765.6201171875,4,2.8300000000,A01A3A,5,1548137663000
1548137691781.2500000000,4,7.8300000000,A01A3A,5,1548137663000
1548137691796.8798828125,4,12.6800000000,A01A3A,5,1548137663000
1548137691812.5000000000,4,17.1800000000,A01A3A,5,1548137663000
1548137691828.1201171875,4,20.8500000000,A01A3A,5,1548137663000
1548137691843.7500000000,4,23.3200000000,A01A3A,5,1548137663000
1548137691859.3798828125,4,24.5100000000,A01A3A,5,1548137663000
1548137691875.0000000000,4,24.8400000000,A01A3A,5,1548137663000
1548137691890.6201171875,4,24.9800000000,A01A3A,5,1548137663000
1548137691906.2500000000,4,25.5700000000,A01A3A,5,1548137663000
1548137691921.8798828125,4,26.9800000000,A01A3A,5,1548137663000
1548137691937.5000000000,4,29.1800000000,A01A3A,5,1548137663000
1548137691953.1201171875,4,31.8900000000,A01A3A,5,1548137663000
1548137691968.7500000000,4,34.7000000000,A01A3A,5,1548137663000
1548137691984.3798828125,4,37.3500000000,A01A3A,5,1548137663000
1548137692000.0000000000,4,39.6600000000,A01A3A,5,1548137663000
1548137692015.6201171875,4,41.5900000000,A01A3A,5,1548137663000
1548137692031.2500000000,4,43.0400000000,A01A3A,5,1548137663000
1548137692046.8798828125,4,43.8400000000,A01A3A,5,1548137663000
1548137692062.5000000000,4,43.8000000000,A01A3A,5,1548137663000
1548137692078.1201171875,4,42.7900000000,A01A3A,5,1548137663000
