timestamp,pid,value,device_serial,device_number,entry_time
1552633369000.0000000000,25,0E-10,A01525,1,1552633369000
1552633369015.6201171875,25,0E-10,A01525,1,1552633369000
1552633369031.2500000000,25,0E-10,A01525,1,1552633369000
1552633369046.8798828125,25,0E-10,A01525,1,1552633369000
1552633369062.5000000000,25,0E-10,A01525,1,1552633369000
1552633369078.1201171875,25,0E-10,A01525,1,1552633369000
1552633369093.7500000000,25,0E-10,A01525,1,1552633369000
1552633369109.3798828125,25,0E-10,A01525,1,1552633369000
1552633369125.0000000000,25,0E-10,A01525,1,1552633369000
1552633369140.6201171875,25,0E-10,A01525,1,1552633369000
1552633369156.2500000000,25,0E-10,A01525,1,1552633369000
1552633369171.8798828125,25,0.0100000000,A01525,1,1552633369000
1552633369187.5000000000,25,0.0100000000,A01525,1,1552633369000
1552633369203.1201171875,25,0E-10,A01525,1,1552633369000
1552633369218.7500000000,25,-0.0300000000,A01525,1,1552633369000
1552633369234.3798828125,25,-0.0500000000,A01525,1,1552633369000
1552633369250.0000000000,25,-0.0500000000,A01525,1,1552633369000
1552633369265.6201171875,25,0E-10,A01525,1,1552633369000
1552633369281.2500000000,25,0.1300000000,A01525,1,1552633369000
1552633369296.8798828125,25,0.3600000000,A01525,1,1552633369000
1552633369312.5000000000,25,0.6600000000,A01525,1,1552633369000
1552633369328.1201171875,25,1.0100000000,A01525,1,1552633369000
1552633369343.7500000000,25,1.3700000000,A01525,1,1552633369000
1552633369359.3798828125,25,1.7200000000,A01525,1,1552633369000
1552633369375.0000000000,25,2.0600000000,A01525,1,1552633369000
1552633369390.6201171875,25,2.4000000000,A01525,1,1552633369000
1552633369406.2500000000,25,2.7900000000,A01525,1,1552633369000
1552633369421.8798828125,25,3.2400000000,A01525,1,1552633369000
1552633369437.5000000000,25,3.8000000000,A01525,1,1552633369000
1552633369453.1201171875,25,4.4200000000,A01525,1,1552633369000
1552633369468.7500000000,25,5.0600000000,A01525,1,1552633369000
1552633369484.3798828125,25,5.6600000000,A01525,1,1552633369000
1552633369500.0000000000,25,6.2000000000,A01525,1,1552633369000
1552633369515.6201171875,25,6.6800000000,A01525,1,1552633369000
1552633369531.2500000000,25,7.1500000000,A01525,1,1552633369000
1552633369546.8798828125,25,7.6800000000,A01525,1,1552633369000
1552633369562.5000000000,25,8.3100000000,A01525,1,1552633369000
1552633369578.1201171875,25,9.1400000000,A01525,1,1552633369000
1552633369593.7500000000,25,10.0900000000,A01525,1,1552633369000
1552633369609.3798828125,25,11.0400000000,A01525,1,1552633369000
1552633369625.0000000000,25,11.8800000000,A01525,1,1552633369000
1552633369640.6201171875,25,12.5600000000,A01525,1,1552633369000
1552633369656.2500000000,25,13.1400000000,A01525,1,1552633369000
1552633369671.8798828125,25,13.7600000000,A01525,1,1552633369000
1552633369687.5000000000,25,14.6500000000,A01525,1,1552633369000
1552633369703.1201171875,25,15.9600000000,A01525,1,1552633369000
1552633369718.7500000000,25,17.9100000000,A01525,1,1552633369000
1552633369734.3798828125,25,20.3200000000,A01525,1,1552633369000
1552633369750.0000000000,25,22.9000000000,A01525,1,1552633369000
1552633369765.6201171875,25,25.3800000000,A01525,1,1552633369000
1552633369781.2500000000,25,27.5800000000,A01525,1,1552633369000
1552633369796.8798828125,25,29.5700000000,A01525,1,1552633369000
1552633369812.5000000000,25,31.6800000000,A01525,1,1552633369000
1552633369828.1201171875,25,34.3200000000,A01525,1,1552633369000
1552633369843.7500000000,25,37.8100000000,A01525,1,1552633369000
1552633369859.3798828125,25,42.5400000000,A01525,1,1552633369000
1552633369875.0000000000,25,48.1500000000,A01525,1,1552633369000
1552633369890.6201171875,25,54.1000000000,A01525,1,1552633369000
1552633369906.2500000000,25,59.8300000000,A01525,1,1552633369000
1552633369921.8798828125,25,64.9700000000,A01525,1,1552633369000
1552633369937.5000000000,25,69.5800000000,A01525,1,1552633369000
1552633369953.1201171875,25,74.1400000000,A01525,1,1552633369000
1552633369968.7500000000,25,79.3400000000,A01525,1,1552633369000
1552633369984.3798828125,25,85.7100000000,A01525,1,1552633369000
1552633370000.0000000000,25,93.7600000000,A01525,1,1552633369000
1552633370015.6201171875,25,103.0000000000,A01525,1,1552633369000
1552633370031.2500000000,25,112.6200000000,A01525,1,1552633369000
1552633370046.8798828125,25,121.7300000000,A01525,1,1552633369000
1552633370062.5000000000,25,129.7700000000,A01525,1,1552633369000
1552633370078.1201171875,25,136.7500000000,A01525,1,1552633369000
1552633370093.7500000000,25,143.3000000000,A01525,1,1552633369000
1552633370109.3798828125,25,150.7500000000,A01525,1,1552633369000
1552633370125.0000000000,25,157.7700000000,A01525,1,1552633369000
1552633370140.6201171875,25,166.6400000000,A01525,1,1552633369000
1552633370156.2500000000,25,177.9500000000,A01525,1,1552633369000
1552633370171.8798828125,25,191.7900000000,A01525,1,1552633369000
1552633370187.5000000000,25,206.9700000000,A01525,1,1552633369000
1552633370203.1201171875,25,220.5700000000,A01525,1,1552633369000
1552633370218.7500000000,25,228.2500000000,A01525,1,1552633369000
1552633370234.3798828125,25,225.3600000000,A01525,1,1552633369000
1552633370250.0000000000,25,208.5300000000,A01525,1,1552633369000
1552633370265.6201171875,25,176.8700000000,A01525,1,1552633369000
1552633370281.2500000000,25,132.7600000000,A01525,1,1552633369000
1552633370296.8798828125,25,80.0500000000,A01525,1,1552633369000
1552633370312.5000000000,25,23.0700000000,A01525,1,1552633369000
1552633370328.1201171875,25,-34.9400000000,A01525,1,1552633369000
1552633370343.7500000000,25,-92.4400000000,A01525,1,1552633369000
1552633370359.3798828125,25,-149.1600000000,A01525,1,1552633369000
1552633370375.0000000000,25,-205.2300000000,A01525,1,1552633369000
1552633370390.6201171875,25,-260.3700000000,A01525,1,1552633369000
1552633370406.2500000000,25,-313.7400000000,A01525,1,1552633369000
1552633370421.8798828125,25,-363.8600000000,A01525,1,1552633369000
1552633370437.5000000000,25,-409.8100000000,A01525,1,1552633369000
1552633370453.1201171875,25,-450.8700000000,A01525,1,1552633369000
1552633370468.7500000000,25,-486.4400000000,A01525,1,1552633369000
1552633370484.3798828125,25,-515.6500000000,A01525,1,1552633369000
1552633370500.0000000000,25,-537.1000000000,A01525,1,1552633369000
1552633370515.6201171875,25,-549.0600000000,A01525,1,1552633369000
1552633370531.2500000000,25,-549.7500000000,A01525,1,1552633369000
1552633370546.8798828125,25,-538.1000000000,A01525,1,1552633369000
1552633370562.5000000000,25,-513.8900000000,A01525,1,1552633369000
1552633370578.1201171875,25,-478.3000000000,A01525,1,1552633369000
1552633370593.7500000000,25,-433.4400000000,A01525,1,1552633369000
1552633370609.3798828125,25,-381.9400000000,A01525,1,1552633369000
1552633370625.0000000000,25,-326.4400000000,A01525,1,1552633369000
1552633370640.6201171875,25,-269.2000000000,A01525,1,1552633369000
1552633370656.2500000000,25,-211.9200000000,A01525,1,1552633369000
1552633370671.8798828125,25,-155.8700000000,A01525,1,1552633369000
1552633370687.5000000000,25,-102.0800000000,A01525,1,1552633369000
1552633370703.1201171875,25,-51.4200000000,A01525,1,1552633369000
1552633370718.7500000000,25,-4.8600000000,A01525,1,1552633369000
1552633370734.3798828125,25,36.7200000000,A01525,1,1552633369000
1552633370750.0000000000,25,72.6700000000,A01525,1,1552633369000
1552633370765.6201171875,25,102.7000000000,A01525,1,1552633369000
1552633370781.2500000000,25,126.9800000000,A01525,1,1552633369000
1552633370796.8798828125,25,145.9900000000,A01525,1,1552633369000
1552633370812.5000000000,25,160.4600000000,A01525,1,1552633369000
1552633370828.1201171875,25,171.0800000000,A01525,1,1552633369000
1552633370843.7500000000,25,178.4900000000,A01525,1,1552633369000
1552633370859.3798828125,25,183.0800000000,A01525,1,1552633369000
1552633370875.0000000000,25,185.1400000000,A01525,1,1552633369000
1552633370890.6201171875,25,184.9000000000,A01525,1,1552633369000
1552633370906.2500000000,25,182.6300000000,A01525,1,1552633369000
1552633370921.8798828125,25,178.6800000000,A01525,1,1552633369000
1552633370937.5000000000,25,173.4600000000,A01525,1,1552633369000
1552633370953.1201171875,25,167.3900000000,A01525,1,1552633369000
1552633370968.7500000000,25,160.7900000000,A01525,1,1552633369000
1552633370984.3798828125,25,153.9400000000,A01525,1,1552633369000
1552633371000.0000000000,25,146.9500000000,A01525,1,1552633369000
1552633371015.6201171875,25,139.9200000000,A01525,1,1552633369000
1552633371031.2500000000,25,132.8800000000,A01525,1,1552633369000
1552633371046.8798828125,25,125.8800000000,A01525,1,1552633369000
1552633371062.5000000000,25,118.9600000000,A01525,1,1552633369000
1552633371078.1201171875,25,112.2200000000,A01525,1,1552633369000
1552633371093.7500000000,25,105.7200000000,A01525,1,1552633369000
1552633371109.3798828125,25,99.5100000000,A01525,1,1552633369000
1552633371125.0000000000,25,93.6300000000,A01525,1,1552633369000
1552633371140.6201171875,25,88.0900000000,A01525,1,1552633369000
1552633371156.2500000000,25,82.9000000000,A01525,1,1552633369000
1552633371171.8798828125,25,78.0700000000,A01525,1,1552633369000
1552633371187.5000000000,25,73.6000000000,A01525,1,1552633369000
1552633371203.1201171875,25,69.5200000000,A01525,1,1552633369000
1552633371218.7500000000,25,65.8200000000,A01525,1,1552633369000
1552633371234.3798828125,25,62.5200000000,A01525,1,1552633369000
1552633371250.0000000000,25,59.6200000000,A01525,1,1552633369000
1552633371265.6201171875,25,57.1200000000,A01525,1,1552633369000
1552633371281.2500000000,25,55.0100000000,A01525,1,1552633369000
1552633371296.8798828125,25,53.2800000000,A01525,1,1552633369000
1552633371312.5000000000,25,51.8800000000,A01525,1,1552633369000
1552633371328.1201171875,25,50.7600000000,A01525,1,1552633369000
1552633371343.7500000000,25,49.8200000000,A01525,1,1552633369000
1552633371359.3798828125,25,48.9400000000,A01525,1,1552633369000
1552633371375.0000000000,25,47.9700000000,A01525,1,1552633369000
1552633371390.6201171875,25,46.7300000000,A01525,1,1552633369000
1552633371406.2500000000,25,45.0300000000,A01525,1,1552633369000
1552633371421.8798828125,25,42.7200000000,A01525,1,1552633369000
1552633371437.5000000000,25,39.6800000000,A01525,1,1552633369000
1552633371453.1201171875,25,35.8200000000,A01525,1,1552633369000
1552633371468.7500000000,25,31.1700000000,A01525,1,1552633369000
1552633371484.3798828125,25,25.7400000000,A01525,1,1552633369000
1552633371500.0000000000,25,19.6900000000,A01525,1,1552633369000
1552633371515.6201171875,25,13.2100000000,A01525,1,1552633369000
1552633371531.2500000000,25,6.5500000000,A01525,1,1552633369000
1552633371546.8798828125,25,-0.0200000000,A01525,1,1552633369000
1552633371562.5000000000,25,-6.2300000000,A01525,1,1552633369000
1552633371578.1201171875,25,-11.8300000000,A01525,1,1552633369000
1552633371593.7500000000,25,-16.6300000000,A01525,1,1552633369000
1552633371609.3798828125,25,-20.5000000000,A01525,1,1552633369000
1552633371625.0000000000,25,-23.3700000000,A01525,1,1552633369000
1552633371640.6201171875,25,-25.2300000000,A01525,1,1552633369000
1552633371656.2500000000,25,-26.1300000000,A01525,1,1552633369000
1552633371671.8798828125,25,-26.1800000000,A01525,1,1552633369000
1552633371687.5000000000,25,-25.5100000000,A01525,1,1552633369000
1552633371703.1201171875,25,-24.2500000000,A01525,1,1552633369000
1552633371718.7500000000,25,-22.5500000000,A01525,1,1552633369000
1552633371734.3798828125,25,-20.5300000000,A01525,1,1552633369000
1552633371750.0000000000,25,-18.2800000000,A01525,1,1552633369000
1552633371765.6201171875,25,-15.8900000000,A01525,1,1552633369000
1552633371781.2500000000,25,-13.3900000000,A01525,1,1552633369000
1552633371796.8798828125,25,-10.8400000000,A01525,1,1552633369000
1552633371812.5000000000,25,-8.2600000000,A01525,1,1552633369000
1552633371828.1201171875,25,-5.6800000000,A01525,1,1552633369000
1552633371843.7500000000,25,-3.0900000000,A01525,1,1552633369000
1552633371859.3798828125,25,-0.4900000000,A01525,1,1552633369000
1552633371875.0000000000,25,2.1300000000,A01525,1,1552633369000
1552633371890.6201171875,25,4.7800000000,A01525,1,1552633369000
1552633371906.2500000000,25,7.4900000000,A01525,1,1552633369000
1552633371921.8798828125,25,10.3000000000,A01525,1,1552633369000
1552633371937.5000000000,25,13.1800000000,A01525,1,1552633369000
1552633371953.1201171875,25,16.1000000000,A01525,1,1552633369000
1552633371968.7500000000,25,19.0600000000,A01525,1,1552633369000
1552633371984.3798828125,25,22.0600000000,A01525,1,1552633369000
1552633372000.0000000000,25,25.1200000000,A01525,1,1552633369000
1552633372015.6201171875,25,28.2600000000,A01525,1,1552633369000
1552633372031.2500000000,25,31.5200000000,A01525,1,1552633369000
1552633372046.8798828125,25,34.9500000000,A01525,1,1552633369000
1552633372062.5000000000,25,38.6300000000,A01525,1,1552633369000
1552633372078.1201171875,25,42.5000000000,A01525,1,1552633369000
1552633372093.7500000000,25,46.5200000000,A01525,1,1552633369000
1552633372109.3798828125,25,50.6900000000,A01525,1,1552633369000
1552633372125.0000000000,25,55.0300000000,A01525,1,1552633369000
1552633372140.6201171875,25,59.5400000000,A01525,1,1552633369000
1552633372156.2500000000,25,64.2500000000,A01525,1,1552633369000
1552633372171.8798828125,25,69.1900000000,A01525,1,1552633369000
1552633372187.5000000000,25,74.4100000000,A01525,1,1552633369000
1552633372203.1201171875,25,79.9600000000,A01525,1,1552633369000
1552633372218.7500000000,25,85.7000000000,A01525,1,1552633369000
1552633372234.3798828125,25,91.5100000000,A01525,1,1552633369000
1552633372250.0000000000,25,97.3300000000,A01525,1,1552633369000
1552633372265.6201171875,25,103.1000000000,A01525,1,1552633369000
1552633372281.2500000000,25,108.8100000000,A01525,1,1552633369000
1552633372296.8798828125,25,114.4400000000,A01525,1,1552633369000
1552633372312.5000000000,25,120.0300000000,A01525,1,1552633369000
1552633372328.1201171875,25,125.5900000000,A01525,1,1552633369000
1552633372343.7500000000,25,131.1900000000,A01525,1,1552633369000
1552633372359.3798828125,25,136.5700000000,A01525,1,1552633369000
1552633372375.0000000000,25,141.5300000000,A01525,1,1552633369000
1552633372390.6201171875,25,145.8600000000,A01525,1,1552633369000
1552633372406.2500000000,25,149.3500000000,A01525,1,1552633369000
1552633372421.8798828125,25,151.7200000000,A01525,1,1552633369000
1552633372437.5000000000,25,152.6300000000,A01525,1,1552633369000
1552633372453.1201171875,25,151.5800000000,A01525,1,1552633369000
1552633372468.7500000000,25,147.9000000000,A01525,1,1552633369000
1552633372484.3798828125,25,142.8700000000,A01525,1,1552633369000
1552633372500.0000000000,25,137.0000000000,A01525,1,1552633369000
1552633372515.6201171875,25,130.5600000000,A01525,1,1552633369000
1552633372531.2500000000,25,123.7900000000,A01525,1,1552633369000
1552633372546.8798828125,25,116.8100000000,A01525,1,1552633369000
1552633372562.5000000000,25,109.7700000000,A01525,1,1552633369000
1552633372578.1201171875,25,102.7500000000,A01525,1,1552633369000
1552633372593.7500000000,25,95.8700000000,A01525,1,1552633369000
1552633372609.3798828125,25,89.2500000000,A01525,1,1552633369000
1552633372625.0000000000,25,83.0500000000,A01525,1,1552633369000
1552633372640.6201171875,25,77.1300000000,A01525,1,1552633369000
1552633372656.2500000000,25,71.4000000000,A01525,1,1552633369000
1552633372671.8798828125,25,65.8500000000,A01525,1,1552633369000
1552633372687.5000000000,25,60.5000000000,A01525,1,1552633369000
1552633372703.1201171875,25,55.3800000000,A01525,1,1552633369000
1552633372718.7500000000,25,50.5100000000,A01525,1,1552633369000
1552633372734.3798828125,25,45.9500000000,A01525,1,1552633369000
1552633372750.0000000000,25,41.7700000000,A01525,1,1552633369000
1552633372765.6201171875,25,38.0700000000,A01525,1,1552633369000
1552633372781.2500000000,25,34.6800000000,A01525,1,1552633369000
1552633372796.8798828125,25,31.5100000000,A01525,1,1552633369000
1552633372812.5000000000,25,28.5000000000,A01525,1,1552633369000
1552633372828.1201171875,25,25.6000000000,A01525,1,1552633369000
1552633372843.7500000000,25,22.7800000000,A01525,1,1552633369000
1552633372859.3798828125,25,20.0300000000,A01525,1,1552633369000
1552633372875.0000000000,25,17.3800000000,A01525,1,1552633369000
1552633372890.6201171875,25,14.8700000000,A01525,1,1552633369000
1552633372906.2500000000,25,12.5800000000,A01525,1,1552633369000
1552633372921.8798828125,25,10.4500000000,A01525,1,1552633369000
1552633372937.5000000000,25,8.4700000000,A01525,1,1552633369000
1552633372953.1201171875,25,6.6500000000,A01525,1,1552633369000
1552633372968.7500000000,25,5.0200000000,A01525,1,1552633369000
1552633372984.3798828125,25,3.5800000000,A01525,1,1552633369000
1552633373000.0000000000,25,2.3700000000,A01525,1,1552633369000
1552633373015.6201171875,25,1.3800000000,A01525,1,1552633369000
1552633373031.2500000000,25,0.6200000000,A01525,1,1552633369000
1552633373046.8798828125,25,0.0900000000,A01525,1,1552633369000
1552633373062.5000000000,25,-0.2800000000,A01525,1,1552633369000
1552633373078.1201171875,25,-0.5600000000,A01525,1,1552633369000
1552633373093.7500000000,25,-0.7900000000,A01525,1,1552633369000
1552633373109.3798828125,25,-1.0100000000,A01525,1,1552633369000
1552633373125.0000000000,25,-1.2400000000,A01525,1,1552633369000
1552633373140.6201171875,25,-1.5000000000,A01525,1,1552633369000
1552633373156.2500000000,25,-1.7900000000,A01525,1,1552633369000
1552633373171.8798828125,25,-2.1000000000,A01525,1,1552633369000
1552633373187.5000000000,25,-2.4000000000,A01525,1,1552633369000
1552633373203.1201171875,25,-2.6800000000,A01525,1,1552633369000
1552633373218.7500000000,25,-2.9500000000,A01525,1,1552633369000
1552633373234.3798828125,25,-3.1900000000,A01525,1,1552633369000
1552633373250.0000000000,25,-3.4200000000,A01525,1,1552633369000
1552633373265.6201171875,25,-3.6500000000,A01525,1,1552633369000
1552633373281.2500000000,25,-3.9300000000,A01525,1,1552633369000
1552633373296.8798828125,25,-4.2600000000,A01525,1,1552633369000
1552633373312.5000000000,25,-4.6400000000,A01525,1,1552633369000
1552633373328.1201171875,25,-5.0600000000,A01525,1,1552633369000
1552633373343.7500000000,25,-5.4900000000,A01525,1,1552633369000
1552633373359.3798828125,25,-5.9100000000,A01525,1,1552633369000
1552633373375.0000000000,25,-6.3100000000,A01525,1,1552633369000
1552633373390.6201171875,25,-6.7100000000,A01525,1,1552633369000
1552633373406.2500000000,25,-7.1500000000,A01525,1,1552633369000
1552633373421.8798828125,25,-7.6800000000,A01525,1,1552633369000
1552633373437.5000000000,25,-8.3100000000,A01525,1,1552633369000
1552633373453.1201171875,25,-9.0500000000,A01525,1,1552633369000
1552633373468.7500000000,25,-9.8400000000,A01525,1,1552633369000
1552633373484.3798828125,25,-10.6300000000,A01525,1,1552633369000
1552633373500.0000000000,25,-11.3700000000,A01525,1,1552633369000
1552633373515.6201171875,25,-12.0400000000,A01525,1,1552633369000
1552633373531.2500000000,25,-12.6800000000,A01525,1,1552633369000
1552633373546.8798828125,25,-13.3600000000,A01525,1,1552633369000
1552633373562.5000000000,25,-14.1700000000,A01525,1,1552633369000
1552633373578.1201171875,25,-15.1400000000,A01525,1,1552633369000
1552633373593.7500000000,25,-16.2900000000,A01525,1,1552633369000
1552633373609.3798828125,25,-17.5100000000,A01525,1,1552633369000
1552633373625.0000000000,25,-18.6700000000,A01525,1,1552633369000
1552633373640.6201171875,25,-19.7100000000,A01525,1,1552633369000
1552633373656.2500000000,25,-20.6100000000,A01525,1,1552633369000
1552633373671.8798828125,25,-21.5200000000,A01525,1,1552633369000
1552633373687.5000000000,25,-22.6700000000,A01525,1,1552633369000
1552633373703.1201171875,25,-24.3000000000,A01525,1,1552633369000
1552633373718.7500000000,25,-26.5700000000,A01525,1,1552633369000
1552633373734.3798828125,25,-29.4700000000,A01525,1,1552633369000
1552633373750.0000000000,25,-32.7700000000,A01525,1,1552633369000
1552633373765.6201171875,25,-36.1700000000,A01525,1,1552633369000
1552633373781.2500000000,25,-39.4200000000,A01525,1,1552633369000
1552633373796.8798828125,25,-42.4600000000,A01525,1,1552633369000
1552633373812.5000000000,25,-45.5300000000,A01525,1,1552633369000
1552633373828.1201171875,25,-49.0500000000,A01525,1,1552633369000
1552633373843.7500000000,25,-53.5000000000,A01525,1,1552633369000
1552633373859.3798828125,25,-59.1700000000,A01525,1,1552633369000
1552633373875.0000000000,25,-66.0000000000,A01525,1,1552633369000
1552633373890.6201171875,25,-73.5700000000,A01525,1,1552633369000
1552633373906.2500000000,25,-81.2800000000,A01525,1,1552633369000
1552633373921.8798828125,25,-88.6000000000,A01525,1,1552633369000
1552633373937.5000000000,25,-95.3800000000,A01525,1,1552633369000
1552633373953.1201171875,25,-101.9500000000,A01525,1,1552633369000
1552633373968.7500000000,25,-109.0200000000,A01525,1,1552633369000
1552633373984.3798828125,25,-117.3700000000,A01525,1,1552633369000
1552633374000.0000000000,25,-127.5000000000,A01525,1,1552633369000
1552633374015.6201171875,25,-139.4000000000,A01525,1,1552633369000
1552633374031.2500000000,25,-152.5100000000,A01525,1,1552633369000
1552633374046.8798828125,25,-166.0600000000,A01525,1,1552633369000
1552633374062.5000000000,25,-179.3200000000,A01525,1,1552633369000
1552633374078.1201171875,25,-191.9900000000,A01525,1,1552633369000
1552633374093.7500000000,25,-204.3000000000,A01525,1,1552633369000
1552633374109.3798828125,25,-216.9200000000,A01525,1,1552633369000
1552633374125.0000000000,25,-230.8600000000,A01525,1,1552633369000
1552633374140.6201171875,25,-247.2400000000,A01525,1,1552633369000
1552633374156.2500000000,25,-267.1500000000,A01525,1,1552633369000
1552633374171.8798828125,25,-291.1000000000,A01525,1,1552633369000
1552633374187.5000000000,25,-318.5000000000,A01525,1,1552633369000
1552633374203.1201171875,25,-347.0800000000,A01525,1,1552633369000
1552633374218.7500000000,25,-372.9700000000,A01525,1,1552633369000
1552633374234.3798828125,25,-391.5300000000,A01525,1,1552633369000
1552633374250.0000000000,25,-398.6700000000,A01525,1,1552633369000
1552633374265.6201171875,25,-392.4000000000,A01525,1,1552633369000
1552633374281.2500000000,25,-373.5800000000,A01525,1,1552633369000
1552633374296.8798828125,25,-345.5900000000,A01525,1,1552633369000
1552633374312.5000000000,25,-313.0100000000,A01525,1,1552633369000
1552633374328.1201171875,25,-280.0400000000,A01525,1,1552633369000
1552633374343.7500000000,25,-249.2800000000,A01525,1,1552633369000
1552633374359.3798828125,25,-221.5500000000,A01525,1,1552633369000
1552633374375.0000000000,25,-196.4800000000,A01525,1,1552633369000
1552633374390.6201171875,25,-173.4000000000,A01525,1,1552633369000
1552633374406.2500000000,25,-152.0200000000,A01525,1,1552633369000
1552633374421.8798828125,25,-132.4800000000,A01525,1,1552633369000
1552633374437.5000000000,25,-114.9900000000,A01525,1,1552633369000
1552633374453.1201171875,25,-99.4800000000,A01525,1,1552633369000
1552633374468.7500000000,25,-85.4500000000,A01525,1,1552633369000
1552633374484.3798828125,25,-72.1900000000,A01525,1,1552633369000
1552633374500.0000000000,25,-59.1800000000,A01525,1,1552633369000
1552633374515.6201171875,25,-46.3600000000,A01525,1,1552633369000
1552633374531.2500000000,25,-34.2200000000,A01525,1,1552633369000
1552633374546.8798828125,25,-23.4800000000,A01525,1,1552633369000
1552633374562.5000000000,25,-14.6500000000,A01525,1,1552633369000
1552633374578.1201171875,25,-7.7600000000,A01525,1,1552633369000
1552633374593.7500000000,25,-2.3100000000,A01525,1,1552633369000
1552633374609.3798828125,25,2.5200000000,A01525,1,1552633369000
1552633374625.0000000000,25,7.4500000000,A01525,1,1552633369000
1552633374640.6201171875,25,12.8000000000,A01525,1,1552633369000
1552633374656.2500000000,25,18.3800000000,A01525,1,1552633369000
1552633374671.8798828125,25,23.6200000000,A01525,1,1552633369000
1552633374687.5000000000,25,27.8800000000,A01525,1,1552633369000
1552633374703.1201171875,25,30.7700000000,A01525,1,1552633369000
1552633374718.7500000000,25,32.2900000000,A01525,1,1552633369000
1552633374734.3798828125,25,32.8100000000,A01525,1,1552633369000
1552633374750.0000000000,25,32.9000000000,A01525,1,1552633369000
1552633374765.6201171875,25,33.0700000000,A01525,1,1552633369000
1552633374781.2500000000,25,33.5900000000,A01525,1,1552633369000
1552633374796.8798828125,25,34.3800000000,A01525,1,1552633369000
1552633374812.5000000000,25,35.0900000000,A01525,1,1552633369000
1552633374828.1201171875,25,35.3600000000,A01525,1,1552633369000
1552633374843.7500000000,25,34.9200000000,A01525,1,1552633369000
1552633374859.3798828125,25,33.7500000000,A01525,1,1552633369000
1552633374875.0000000000,25,32.1000000000,A01525,1,1552633369000
1552633374890.6201171875,25,30.3300000000,A01525,1,1552633369000
1552633374906.2500000000,25,28.7700000000,A01525,1,1552633369000
1552633374921.8798828125,25,27.5000000000,A01525,1,1552633369000
1552633374937.5000000000,25,26.4000000000,A01525,1,1552633369000
1552633374953.1201171875,25,25.2400000000,A01525,1,1552633369000
1552633374968.7500000000,25,23.7800000000,A01525,1,1552633369000
1552633374984.3798828125,25,22.0000000000,A01525,1,1552633369000
1552633375000.0000000000,25,20.0000000000,A01525,1,1552633369000
1552633375015.6201171875,25,18.0300000000,A01525,1,1552633369000
1552633375031.2500000000,25,16.2100000000,A01525,1,1552633369000
1552633375046.8798828125,25,14.4800000000,A01525,1,1552633369000
1552633375062.5000000000,25,12.6200000000,A01525,1,1552633369000
1552633375078.1201171875,25,10.4400000000,A01525,1,1552633369000
1552633375093.7500000000,25,7.9700000000,A01525,1,1552633369000
1552633375109.3798828125,25,5.5800000000,A01525,1,1552633369000
1552633375125.0000000000,25,3.9600000000,A01525,1,1552633369000
1552633375140.6201171875,25,3.8000000000,A01525,1,1552633369000
1552633375156.2500000000,25,5.4600000000,A01525,1,1552633369000
1552633375171.8798828125,25,8.8100000000,A01525,1,1552633369000
1552633375187.5000000000,25,13.1800000000,A01525,1,1552633369000
1552633375203.1201171875,25,17.6700000000,A01525,1,1552633369000
1552633375218.7500000000,25,21.5500000000,A01525,1,1552633369000
1552633375234.3798828125,25,24.4800000000,A01525,1,1552633369000
1552633375250.0000000000,25,26.6200000000,A01525,1,1552633369000
1552633375265.6201171875,25,28.4200000000,A01525,1,1552633369000
1552633375281.2500000000,25,30.3400000000,A01525,1,1552633369000
1552633375296.8798828125,25,32.5300000000,A01525,1,1552633369000
1552633375312.5000000000,25,34.8000000000,A01525,1,1552633369000
1552633375328.1201171875,25,36.7300000000,A01525,1,1552633369000
1552633375343.7500000000,25,37.8900000000,A01525,1,1552633369000
1552633375359.3798828125,25,38.1400000000,A01525,1,1552633369000
1552633375375.0000000000,25,37.6200000000,A01525,1,1552633369000
1552633375390.6201171875,25,36.6700000000,A01525,1,1552633369000
1552633375406.2500000000,25,35.6500000000,A01525,1,1552633369000
1552633375421.8798828125,25,34.7500000000,A01525,1,1552633369000
1552633375437.5000000000,25,33.9000000000,A01525,1,1552633369000
1552633375453.1201171875,25,32.9300000000,A01525,1,1552633369000
1552633375468.7500000000,25,31.6100000000,A01525,1,1552633369000
1552633375484.3798828125,25,29.9100000000,A01525,1,1552633369000
1552633375500.0000000000,25,27.9900000000,A01525,1,1552633369000
1552633375515.6201171875,25,26.1600000000,A01525,1,1552633369000
1552633375531.2500000000,25,24.7100000000,A01525,1,1552633369000
1552633375546.8798828125,25,23.7400000000,A01525,1,1552633369000
1552633375562.5000000000,25,23.1400000000,A01525,1,1552633369000
1552633375578.1201171875,25,22.5800000000,A01525,1,1552633369000
1552633375593.7500000000,25,21.7400000000,A01525,1,1552633369000
1552633375609.3798828125,25,20.4300000000,A01525,1,1552633369000
1552633375625.0000000000,25,18.7100000000,A01525,1,1552633369000
1552633375640.6201171875,25,16.8300000000,A01525,1,1552633369000
1552633375656.2500000000,25,15.1200000000,A01525,1,1552633369000
1552633375671.8798828125,25,13.7300000000,A01525,1,1552633369000
1552633375687.5000000000,25,12.6100000000,A01525,1,1552633369000
1552633375703.1201171875,25,11.5700000000,A01525,1,1552633369000
1552633375718.7500000000,25,10.3900000000,A01525,1,1552633369000
1552633375734.3798828125,25,9.0000000000,A01525,1,1552633369000
1552633375750.0000000000,25,7.4700000000,A01525,1,1552633369000
1552633375765.6201171875,25,5.9700000000,A01525,1,1552633369000
1552633375781.2500000000,25,4.5700000000,A01525,1,1552633369000
1552633375796.8798828125,25,3.2100000000,A01525,1,1552633369000
1552633375812.5000000000,25,1.6700000000,A01525,1,1552633369000
1552633375828.1201171875,25,-0.2500000000,A01525,1,1552633369000
1552633375843.7500000000,25,-2.6600000000,A01525,1,1552633369000
1552633375859.3798828125,25,-5.5100000000,A01525,1,1552633369000
1552633375875.0000000000,25,-8.6300000000,A01525,1,1552633369000
1552633375890.6201171875,25,-11.8400000000,A01525,1,1552633369000
1552633375906.2500000000,25,-15.0700000000,A01525,1,1552633369000
1552633375921.8798828125,25,-18.3700000000,A01525,1,1552633369000
1552633375937.5000000000,25,-21.8800000000,A01525,1,1552633369000
1552633375953.1201171875,25,-25.8100000000,A01525,1,1552633369000
1552633375968.7500000000,25,-30.3600000000,A01525,1,1552633369000
1552633375984.3798828125,25,-35.6500000000,A01525,1,1552633369000
1552633376000.0000000000,25,-41.6300000000,A01525,1,1552633369000
1552633376015.6201171875,25,-47.9600000000,A01525,1,1552633369000
1552633376031.2500000000,25,-54.0900000000,A01525,1,1552633369000
1552633376046.8798828125,25,-59.3100000000,A01525,1,1552633369000
1552633376062.5000000000,25,-63.1000000000,A01525,1,1552633369000
1552633376078.1201171875,25,-65.2800000000,A01525,1,1552633369000
1552633376093.7500000000,25,-66.1400000000,A01525,1,1552633369000
1552633376109.3798828125,25,-66.3400000000,A01525,1,1552633369000
1552633376125.0000000000,25,-66.6400000000,A01525,1,1552633369000
1552633376140.6201171875,25,-67.6200000000,A01525,1,1552633369000
1552633376156.2500000000,25,-69.4800000000,A01525,1,1552633369000
1552633376171.8798828125,25,-72.1200000000,A01525,1,1552633369000
1552633376187.5000000000,25,-75.2500000000,A01525,1,1552633369000
1552633376203.1201171875,25,-78.5400000000,A01525,1,1552633369000
1552633376218.7500000000,25,-81.7900000000,A01525,1,1552633369000
1552633376234.3798828125,25,-84.9100000000,A01525,1,1552633369000
1552633376250.0000000000,25,-87.8600000000,A01525,1,1552633369000
1552633376265.6201171875,25,-90.6400000000,A01525,1,1552633369000
1552633376281.2500000000,25,-93.2700000000,A01525,1,1552633369000
1552633376296.8798828125,25,-95.7900000000,A01525,1,1552633369000
1552633376312.5000000000,25,-98.2300000000,A01525,1,1552633369000
1552633376328.1201171875,25,-100.5900000000,A01525,1,1552633369000
1552633376343.7500000000,25,-102.7500000000,A01525,1,1552633369000
1552633376359.3798828125,25,-104.4600000000,A01525,1,1552633369000
1552633376375.0000000000,25,-105.3600000000,A01525,1,1552633369000
1552633376390.6201171875,25,-105.1800000000,A01525,1,1552633369000
1552633376406.2500000000,25,-103.8900000000,A01525,1,1552633369000
1552633376421.8798828125,25,-101.8800000000,A01525,1,1552633369000
1552633376437.5000000000,25,-99.7900000000,A01525,1,1552633369000
1552633376453.1201171875,25,-98.2700000000,A01525,1,1552633369000
1552633376468.7500000000,25,-97.5700000000,A01525,1,1552633369000
1552633376484.3798828125,25,-97.3500000000,A01525,1,1552633369000
1552633376500.0000000000,25,-96.5600000000,A01525,1,1552633369000
1552633376515.6201171875,25,-93.6100000000,A01525,1,1552633369000
1552633376531.2500000000,25,-86.7700000000,A01525,1,1552633369000
1552633376546.8798828125,25,-74.6400000000,A01525,1,1552633369000
1552633376562.5000000000,25,-56.5600000000,A01525,1,1552633369000
1552633376578.1201171875,25,-32.7400000000,A01525,1,1552633369000
1552633376593.7500000000,25,-4.2500000000,A01525,1,1552633369000
1552633376609.3798828125,25,27.2800000000,A01525,1,1552633369000
1552633376625.0000000000,25,60.0500000000,A01525,1,1552633369000
1552633376640.6201171875,25,92.3300000000,A01525,1,1552633369000
1552633376656.2500000000,25,122.7800000000,A01525,1,1552633369000
1552633376671.8798828125,25,150.2900000000,A01525,1,1552633369000
1552633376687.5000000000,25,173.9800000000,A01525,1,1552633369000
1552633376703.1201171875,25,193.0300000000,A01525,1,1552633369000
1552633376718.7500000000,25,206.8200000000,A01525,1,1552633369000
1552633376734.3798828125,25,214.9900000000,A01525,1,1552633369000
1552633376750.0000000000,25,217.7200000000,A01525,1,1552633369000
1552633376765.6201171875,25,215.6800000000,A01525,1,1552633369000
1552633376781.2500000000,25,209.9300000000,A01525,1,1552633369000
1552633376796.8798828125,25,201.6500000000,A01525,1,1552633369000
1552633376812.5000000000,25,191.9800000000,A01525,1,1552633369000
1552633376828.1201171875,25,181.9200000000,A01525,1,1552633369000
1552633376843.7500000000,25,172.2500000000,A01525,1,1552633369000
1552633376859.3798828125,25,163.6000000000,A01525,1,1552633369000
1552633376875.0000000000,25,156.4400000000,A01525,1,1552633369000
1552633376890.6201171875,25,151.0700000000,A01525,1,1552633369000
1552633376906.2500000000,25,147.6800000000,A01525,1,1552633369000
1552633376921.8798828125,25,146.4500000000,A01525,1,1552633369000
1552633376937.5000000000,25,147.5200000000,A01525,1,1552633369000
1552633376953.1201171875,25,150.9300000000,A01525,1,1552633369000
1552633376968.7500000000,25,156.3600000000,A01525,1,1552633369000
1552633376984.3798828125,25,162.9300000000,A01525,1,1552633369000
1552633377000.0000000000,25,169.0000000000,A01525,1,1552633369000
1552633377015.6201171875,25,172.5400000000,A01525,1,1552633369000
1552633377031.2500000000,25,171.7200000000,A01525,1,1552633369000
1552633377046.8798828125,25,165.5100000000,A01525,1,1552633369000
1552633377062.5000000000,25,154.1300000000,A01525,1,1552633369000
1552633377078.1201171875,25,138.9800000000,A01525,1,1552633369000
1552633377093.7500000000,25,122.2100000000,A01525,1,1552633369000
1552633377109.3798828125,25,106.0600000000,A01525,1,1552633369000
1552633377125.0000000000,25,92.1800000000,A01525,1,1552633369000
1552633377140.6201171875,25,81.2800000000,A01525,1,1552633369000
1552633377156.2500000000,25,73.1000000000,A01525,1,1552633369000
1552633377171.8798828125,25,66.7100000000,A01525,1,1552633369000
1552633377187.5000000000,25,61.0300000000,A01525,1,1552633369000
1552633377203.1201171875,25,55.2900000000,A01525,1,1552633369000
1552633377218.7500000000,25,49.2900000000,A01525,1,1552633369000
1552633377234.3798828125,25,43.3600000000,A01525,1,1552633369000
1552633377250.0000000000,25,38.1000000000,A01525,1,1552633369000
1552633377265.6201171875,25,34.0900000000,A01525,1,1552633369000
1552633377281.2500000000,25,31.5100000000,A01525,1,1552633369000
1552633377296.8798828125,25,30.0700000000,A01525,1,1552633369000
1552633377312.5000000000,25,29.1800000000,A01525,1,1552633369000
1552633377328.1201171875,25,28.2200000000,A01525,1,1552633369000
1552633377343.7500000000,25,26.8100000000,A01525,1,1552633369000
1552633377359.3798828125,25,24.9300000000,A01525,1,1552633369000
1552633377375.0000000000,25,22.8900000000,A01525,1,1552633369000
1552633377390.6201171875,25,21.0600000000,A01525,1,1552633369000
1552633377406.2500000000,25,19.6400000000,A01525,1,1552633369000
1552633377421.8798828125,25,18.6100000000,A01525,1,1552633369000
1552633377437.5000000000,25,17.7400000000,A01525,1,1552633369000
1552633377453.1201171875,25,16.8100000000,A01525,1,1552633369000
1552633377468.7500000000,25,15.6900000000,A01525,1,1552633369000
1552633377484.3798828125,25,14.4600000000,A01525,1,1552633369000
1552633377500.0000000000,25,13.2600000000,A01525,1,1552633369000
1552633377515.6201171875,25,12.1300000000,A01525,1,1552633369000
1552633377531.2500000000,25,10.9000000000,A01525,1,1552633369000
1552633377546.8798828125,25,9.1500000000,A01525,1,1552633369000
1552633377562.5000000000,25,6.4300000000,A01525,1,1552633369000
1552633377578.1201171875,25,2.4500000000,A01525,1,1552633369000
1552633377593.7500000000,25,-2.7900000000,A01525,1,1552633369000
1552633377609.3798828125,25,-8.9700000000,A01525,1,1552633369000
1552633377625.0000000000,25,-15.6200000000,A01525,1,1552633369000
1552633377640.6201171875,25,-22.2700000000,A01525,1,1552633369000
1552633377656.2500000000,25,-28.6900000000,A01525,1,1552633369000
1552633377671.8798828125,25,-34.9000000000,A01525,1,1552633369000
1552633377687.5000000000,25,-41.0900000000,A01525,1,1552633369000
1552633377703.1201171875,25,-47.4400000000,A01525,1,1552633369000
1552633377718.7500000000,25,-53.9200000000,A01525,1,1552633369000
1552633377734.3798828125,25,-60.0900000000,A01525,1,1552633369000
1552633377750.0000000000,25,-65.2600000000,A01525,1,1552633369000
1552633377765.6201171875,25,-68.6700000000,A01525,1,1552633369000
1552633377781.2500000000,25,-69.8400000000,A01525,1,1552633369000
1552633377796.8798828125,25,-68.8500000000,A01525,1,1552633369000
1552633377812.5000000000,25,-66.3800000000,A01525,1,1552633369000
1552633377828.1201171875,25,-63.4600000000,A01525,1,1552633369000
1552633377843.7500000000,25,-61.0200000000,A01525,1,1552633369000
1552633377859.3798828125,25,-59.5600000000,A01525,1,1552633369000
1552633377875.0000000000,25,-58.8900000000,A01525,1,1552633369000
1552633377890.6201171875,25,-58.3800000000,A01525,1,1552633369000
1552633377906.2500000000,25,-57.2100000000,A01525,1,1552633369000
1552633377921.8798828125,25,-54.9000000000,A01525,1,1552633369000
1552633377937.5000000000,25,-51.3900000000,A01525,1,1552633369000
1552633377953.1201171875,25,-47.0700000000,A01525,1,1552633369000
1552633377968.7500000000,25,-42.4900000000,A01525,1,1552633369000
1552633377984.3798828125,25,-38.1400000000,A01525,1,1552633369000
1552633378000.0000000000,25,-34.3100000000,A01525,1,1552633369000
1552633378015.6201171875,25,-30.9600000000,A01525,1,1552633369000
1552633378031.2500000000,25,-27.9400000000,A01525,1,1552633369000
1552633378046.8798828125,25,-25.0700000000,A01525,1,1552633369000
1552633378062.5000000000,25,-22.2300000000,A01525,1,1552633369000
1552633378078.1201171875,25,-19.4200000000,A01525,1,1552633369000
1552633378093.7500000000,25,-16.7300000000,A01525,1,1552633369000
1552633378109.3798828125,25,-14.2700000000,A01525,1,1552633369000
1552633378125.0000000000,25,-12.1500000000,A01525,1,1552633369000
1552633378140.6201171875,25,-10.4600000000,A01525,1,1552633369000
1552633378156.2500000000,25,-9.1900000000,A01525,1,1552633369000
1552633378171.8798828125,25,-8.3600000000,A01525,1,1552633369000
1552633378187.5000000000,25,-7.9500000000,A01525,1,1552633369000
1552633378203.1201171875,25,-7.9600000000,A01525,1,1552633369000
1552633378218.7500000000,25,-8.3400000000,A01525,1,1552633369000
1552633378234.3798828125,25,-9.0000000000,A01525,1,1552633369000
1552633378250.0000000000,25,-9.7300000000,A01525,1,1552633369000
1552633378265.6201171875,25,-10.3100000000,A01525,1,1552633369000
1552633378281.2500000000,25,-10.5600000000,A01525,1,1552633369000
1552633378296.8798828125,25,-10.4800000000,A01525,1,1552633369000
1552633378312.5000000000,25,-10.3500000000,A01525,1,1552633369000
1552633378328.1201171875,25,-10.6100000000,A01525,1,1552633369000
1552633378343.7500000000,25,-11.7000000000,A01525,1,1552633369000
1552633378359.3798828125,25,-13.8300000000,A01525,1,1552633369000
1552633378375.0000000000,25,-16.7800000000,A01525,1,1552633369000
1552633378390.6201171875,25,-19.9100000000,A01525,1,1552633369000
1552633378406.2500000000,25,-22.4000000000,A01525,1,1552633369000
1552633378421.8798828125,25,-23.5600000000,A01525,1,1552633369000
1552633378437.5000000000,25,-23.2200000000,A01525,1,1552633369000
1552633378453.1201171875,25,-21.8300000000,A01525,1,1552633369000
1552633378468.7500000000,25,-20.1800000000,A01525,1,1552633369000
1552633378484.3798828125,25,-19.0600000000,A01525,1,1552633369000
1552633378500.0000000000,25,-18.8300000000,A01525,1,1552633369000
1552633378515.6201171875,25,-19.2600000000,A01525,1,1552633369000
1552633378531.2500000000,25,-19.7800000000,A01525,1,1552633369000
1552633378546.8798828125,25,-19.9100000000,A01525,1,1552633369000
1552633378562.5000000000,25,-19.5500000000,A01525,1,1552633369000
1552633378578.1201171875,25,-19.0200000000,A01525,1,1552633369000
1552633378593.7500000000,25,-18.7100000000,A01525,1,1552633369000
1552633378609.3798828125,25,-18.6700000000,A01525,1,1552633369000
1552633378625.0000000000,25,-18.4300000000,A01525,1,1552633369000
1552633378640.6201171875,25,-17.2100000000,A01525,1,1552633369000
1552633378656.2500000000,25,-14.4100000000,A01525,1,1552633369000
1552633378671.8798828125,25,-9.9700000000,A01525,1,1552633369000
1552633378687.5000000000,25,-4.5300000000,A01525,1,1552633369000
1552633378703.1201171875,25,0.8800000000,A01525,1,1552633369000
1552633378718.7500000000,25,5.3800000000,A01525,1,1552633369000
1552633378734.3798828125,25,8.5900000000,A01525,1,1552633369000
1552633378750.0000000000,25,10.7600000000,A01525,1,1552633369000
1552633378765.6201171875,25,12.4500000000,A01525,1,1552633369000
1552633378781.2500000000,25,14.2200000000,A01525,1,1552633369000
1552633378796.8798828125,25,16.2600000000,A01525,1,1552633369000
1552633378812.5000000000,25,18.3300000000,A01525,1,1552633369000
1552633378828.1201171875,25,19.9300000000,A01525,1,1552633369000
1552633378843.7500000000,25,20.6000000000,A01525,1,1552633369000
1552633378859.3798828125,25,20.1700000000,A01525,1,1552633369000
1552633378875.0000000000,25,18.8600000000,A01525,1,1552633369000
1552633378890.6201171875,25,17.2200000000,A01525,1,1552633369000
1552633378906.2500000000,25,15.8100000000,A01525,1,1552633369000
1552633378921.8798828125,25,15.0200000000,A01525,1,1552633369000
1552633378937.5000000000,25,14.8100000000,A01525,1,1552633369000
1552633378953.1201171875,25,14.8500000000,A01525,1,1552633369000
1552633378968.7500000000,25,14.7100000000,A01525,1,1552633369000
1552633378984.3798828125,25,14.1800000000,A01525,1,1552633369000
1552633379000.0000000000,25,13.3400000000,A01525,1,1552633369000
1552633379015.6201171875,25,12.5300000000,A01525,1,1552633369000
1552633379031.2500000000,25,12.1200000000,A01525,1,1552633369000
1552633379046.8798828125,25,12.2600000000,A01525,1,1552633369000
1552633379062.5000000000,25,12.7500000000,A01525,1,1552633369000
1552633379078.1201171875,25,13.1900000000,A01525,1,1552633369000
1552633379093.7500000000,25,13.2100000000,A01525,1,1552633369000
1552633379109.3798828125,25,12.6200000000,A01525,1,1552633369000
1552633379125.0000000000,25,11.5400000000,A01525,1,1552633369000
1552633379140.6201171875,25,10.2600000000,A01525,1,1552633369000
1552633379156.2500000000,25,9.0900000000,A01525,1,1552633369000
1552633379171.8798828125,25,8.1300000000,A01525,1,1552633369000
1552633379187.5000000000,25,7.3200000000,A01525,1,1552633369000
1552633379203.1201171875,25,6.4300000000,A01525,1,1552633369000
1552633379218.7500000000,25,5.2400000000,A01525,1,1552633369000
1552633379234.3798828125,25,3.6500000000,A01525,1,1552633369000
1552633379250.0000000000,25,1.7500000000,A01525,1,1552633369000
1552633379265.6201171875,25,-0.2500000000,A01525,1,1552633369000
1552633379281.2500000000,25,-2.0600000000,A01525,1,1552633369000
1552633379296.8798828125,25,-3.5000000000,A01525,1,1552633369000
1552633379312.5000000000,25,-4.5100000000,A01525,1,1552633369000
1552633379328.1201171875,25,-5.1600000000,A01525,1,1552633369000
1552633379343.7500000000,25,-5.6200000000,A01525,1,1552633369000
1552633379359.3798828125,25,-6.0300000000,A01525,1,1552633369000
1552633379375.0000000000,25,-6.4500000000,A01525,1,1552633369000
1552633379390.6201171875,25,-6.8700000000,A01525,1,1552633369000
1552633379406.2500000000,25,-7.2900000000,A01525,1,1552633369000
1552633379421.8798828125,25,-7.7800000000,A01525,1,1552633369000
1552633379437.5000000000,25,-8.5200000000,A01525,1,1552633369000
1552633379453.1201171875,25,-9.6800000000,A01525,1,1552633369000
1552633379468.7500000000,25,-11.2600000000,A01525,1,1552633369000
1552633379484.3798828125,25,-12.9700000000,A01525,1,1552633369000
1552633379500.0000000000,25,-14.2800000000,A01525,1,1552633369000
1552633379515.6201171875,25,-14.6100000000,A01525,1,1552633369000
1552633379531.2500000000,25,-13.5700000000,A01525,1,1552633369000
1552633379546.8798828125,25,-11.1700000000,A01525,1,1552633369000
1552633379562.5000000000,25,-7.8700000000,A01525,1,1552633369000
1552633379578.1201171875,25,-4.3500000000,A01525,1,1552633369000
1552633379593.7500000000,25,-1.3000000000,A01525,1,1552633369000
1552633379609.3798828125,25,0.9100000000,A01525,1,1552633369000
1552633379625.0000000000,25,2.3100000000,A01525,1,1552633369000
1552633379640.6201171875,25,3.2700000000,A01525,1,1552633369000
1552633379656.2500000000,25,4.2600000000,A01525,1,1552633369000
1552633379671.8798828125,25,5.6400000000,A01525,1,1552633369000
1552633379687.5000000000,25,7.4700000000,A01525,1,1552633369000
1552633379703.1201171875,25,9.4800000000,A01525,1,1552633369000
1552633379718.7500000000,25,11.2200000000,A01525,1,1552633369000
1552633379734.3798828125,25,12.3200000000,A01525,1,1552633369000
1552633379750.0000000000,25,12.6600000000,A01525,1,1552633369000
1552633379765.6201171875,25,12.3900000000,A01525,1,1552633369000
1552633379781.2500000000,25,11.8600000000,A01525,1,1552633369000
1552633379796.8798828125,25,11.3400000000,A01525,1,1552633369000
1552633379812.5000000000,25,10.9500000000,A01525,1,1552633369000
1552633379828.1201171875,25,10.5600000000,A01525,1,1552633369000
1552633379843.7500000000,25,10.0100000000,A01525,1,1552633369000
1552633379859.3798828125,25,9.2300000000,A01525,1,1552633369000
1552633379875.0000000000,25,8.3700000000,A01525,1,1552633369000
1552633379890.6201171875,25,7.7600000000,A01525,1,1552633369000
1552633379906.2500000000,25,7.6600000000,A01525,1,1552633369000
1552633379921.8798828125,25,8.1400000000,A01525,1,1552633369000
1552633379937.5000000000,25,8.9200000000,A01525,1,1552633369000
1552633379953.1201171875,25,9.5400000000,A01525,1,1552633369000
1552633379968.7500000000,25,9.5500000000,A01525,1,1552633369000
1552633379984.3798828125,25,8.7500000000,A01525,1,1552633369000
1552633380000.0000000000,25,7.3200000000,A01525,1,1552633369000
1552633380015.6201171875,25,5.7400000000,A01525,1,1552633369000
1552633380031.2500000000,25,4.5100000000,A01525,1,1552633369000
1552633380046.8798828125,25,3.9100000000,A01525,1,1552633369000
1552633380062.5000000000,25,3.8800000000,A01525,1,1552633369000
1552633380078.1201171875,25,4.0000000000,A01525,1,1552633369000
1552633380093.7500000000,25,3.7900000000,A01525,1,1552633369000
1552633380109.3798828125,25,2.9300000000,A01525,1,1552633369000
1552633380125.0000000000,25,1.4300000000,A01525,1,1552633369000
1552633380140.6201171875,25,-0.4000000000,A01525,1,1552633369000
1552633380156.2500000000,25,-2.1800000000,A01525,1,1552633369000
1552633380171.8798828125,25,-3.6000000000,A01525,1,1552633369000
1552633380187.5000000000,25,-4.6400000000,A01525,1,1552633369000
1552633380203.1201171875,25,-5.5200000000,A01525,1,1552633369000
1552633380218.7500000000,25,-6.5200000000,A01525,1,1552633369000
1552633380234.3798828125,25,-7.9000000000,A01525,1,1552633369000
1552633380250.0000000000,25,-9.7200000000,A01525,1,1552633369000
1552633380265.6201171875,25,-11.8600000000,A01525,1,1552633369000
1552633380281.2500000000,25,-14.1300000000,A01525,1,1552633369000
1552633380296.8798828125,25,-16.3000000000,A01525,1,1552633369000
1552633380312.5000000000,25,-18.1600000000,A01525,1,1552633369000
1552633380328.1201171875,25,-19.5100000000,A01525,1,1552633369000
1552633380343.7500000000,25,-20.1000000000,A01525,1,1552633369000
1552633380359.3798828125,25,-19.7200000000,A01525,1,1552633369000
1552633380375.0000000000,25,-18.2400000000,A01525,1,1552633369000
1552633380390.6201171875,25,-15.6500000000,A01525,1,1552633369000
1552633380406.2500000000,25,-12.2100000000,A01525,1,1552633369000
1552633380421.8798828125,25,-8.3600000000,A01525,1,1552633369000
1552633380437.5000000000,25,-4.6500000000,A01525,1,1552633369000
1552633380453.1201171875,25,-1.5700000000,A01525,1,1552633369000
1552633380468.7500000000,25,0.6700000000,A01525,1,1552633369000
1552633380484.3798828125,25,2.1500000000,A01525,1,1552633369000
1552633380500.0000000000,25,3.1800000000,A01525,1,1552633369000
1552633380515.6201171875,25,4.0900000000,A01525,1,1552633369000
1552633380531.2500000000,25,5.1400000000,A01525,1,1552633369000
1552633380546.8798828125,25,6.2800000000,A01525,1,1552633369000
1552633380562.5000000000,25,7.3200000000,A01525,1,1552633369000
1552633380578.1201171875,25,7.9600000000,A01525,1,1552633369000
1552633380593.7500000000,25,8.0100000000,A01525,1,1552633369000
1552633380609.3798828125,25,7.4400000000,A01525,1,1552633369000
1552633380625.0000000000,25,6.4500000000,A01525,1,1552633369000
1552633380640.6201171875,25,5.3300000000,A01525,1,1552633369000
1552633380656.2500000000,25,4.3400000000,A01525,1,1552633369000
1552633380671.8798828125,25,3.6100000000,A01525,1,1552633369000
1552633380687.5000000000,25,3.0700000000,A01525,1,1552633369000
1552633380703.1201171875,25,2.4400000000,A01525,1,1552633369000
1552633380718.7500000000,25,1.4200000000,A01525,1,1552633369000
1552633380734.3798828125,25,-0.2200000000,A01525,1,1552633369000
1552633380750.0000000000,25,-2.4200000000,A01525,1,1552633369000
1552633380765.6201171875,25,-4.8100000000,A01525,1,1552633369000
1552633380781.2500000000,25,-6.7400000000,A01525,1,1552633369000
1552633380796.8798828125,25,-7.5100000000,A01525,1,1552633369000
1552633380812.5000000000,25,-6.6800000000,A01525,1,1552633369000
1552633380828.1201171875,25,-4.2000000000,A01525,1,1552633369000
1552633380843.7500000000,25,-0.4800000000,A01525,1,1552633369000
1552633380859.3798828125,25,3.8600000000,A01525,1,1552633369000
1552633380875.0000000000,25,8.2100000000,A01525,1,1552633369000
1552633380890.6201171875,25,12.1100000000,A01525,1,1552633369000
1552633380906.2500000000,25,15.3400000000,A01525,1,1552633369000
1552633380921.8798828125,25,17.7600000000,A01525,1,1552633369000
1552633380937.5000000000,25,19.2300000000,A01525,1,1552633369000
1552633380953.1201171875,25,19.5900000000,A01525,1,1552633369000
1552633380968.7500000000,25,18.6900000000,A01525,1,1552633369000
1552633380984.3798828125,25,16.5700000000,A01525,1,1552633369000
1552633381000.0000000000,25,13.5000000000,A01525,1,1552633369000
1552633381015.6201171875,25,9.9800000000,A01525,1,1552633369000
1552633381031.2500000000,25,6.5900000000,A01525,1,1552633369000
1552633381046.8798828125,25,3.7600000000,A01525,1,1552633369000
1552633381062.5000000000,25,1.6800000000,A01525,1,1552633369000
1552633381078.1201171875,25,0.2500000000,A01525,1,1552633369000
1552633381093.7500000000,25,-0.8300000000,A01525,1,1552633369000
1552633381109.3798828125,25,-1.8700000000,A01525,1,1552633369000
1552633381125.0000000000,25,-3.1000000000,A01525,1,1552633369000
1552633381140.6201171875,25,-4.5600000000,A01525,1,1552633369000
1552633381156.2500000000,25,-6.1900000000,A01525,1,1552633369000
1552633381171.8798828125,25,-7.8500000000,A01525,1,1552633369000
1552633381187.5000000000,25,-9.4200000000,A01525,1,1552633369000
1552633381203.1201171875,25,-10.8100000000,A01525,1,1552633369000
1552633381218.7500000000,25,-11.8900000000,A01525,1,1552633369000
1552633381234.3798828125,25,-12.4900000000,A01525,1,1552633369000
1552633381250.0000000000,25,-12.3900000000,A01525,1,1552633369000
1552633381265.6201171875,25,-11.4300000000,A01525,1,1552633369000
1552633381281.2500000000,25,-9.5700000000,A01525,1,1552633369000
1552633381296.8798828125,25,-7.0000000000,A01525,1,1552633369000
1552633381312.5000000000,25,-4.0600000000,A01525,1,1552633369000
1552633381328.1201171875,25,-1.1700000000,A01525,1,1552633369000
1552633381343.7500000000,25,1.3700000000,A01525,1,1552633369000
1552633381359.3798828125,25,3.4300000000,A01525,1,1552633369000
1552633381375.0000000000,25,5.0500000000,A01525,1,1552633369000
1552633381390.6201171875,25,6.4500000000,A01525,1,1552633369000
1552633381406.2500000000,25,7.8000000000,A01525,1,1552633369000
1552633381421.8798828125,25,9.2100000000,A01525,1,1552633369000
1552633381437.5000000000,25,10.6200000000,A01525,1,1552633369000
1552633381453.1201171875,25,11.9000000000,A01525,1,1552633369000
1552633381468.7500000000,25,12.8400000000,A01525,1,1552633369000
1552633381484.3798828125,25,13.3300000000,A01525,1,1552633369000
1552633381500.0000000000,25,13.4400000000,A01525,1,1552633369000
1552633381515.6201171875,25,13.3500000000,A01525,1,1552633369000
1552633381531.2500000000,25,13.3000000000,A01525,1,1552633369000
1552633381546.8798828125,25,13.4500000000,A01525,1,1552633369000
1552633381562.5000000000,25,13.7900000000,A01525,1,1552633369000
1552633381578.1201171875,25,14.0800000000,A01525,1,1552633369000
1552633381593.7500000000,25,14.0300000000,A01525,1,1552633369000
1552633381609.3798828125,25,13.4500000000,A01525,1,1552633369000
1552633381625.0000000000,25,12.3800000000,A01525,1,1552633369000
1552633381640.6201171875,25,11.0900000000,A01525,1,1552633369000
1552633381656.2500000000,25,9.9200000000,A01525,1,1552633369000
1552633381671.8798828125,25,9.0800000000,A01525,1,1552633369000
1552633381687.5000000000,25,8.5000000000,A01525,1,1552633369000
1552633381703.1201171875,25,7.9000000000,A01525,1,1552633369000
1552633381718.7500000000,25,6.9500000000,A01525,1,1552633369000
1552633381734.3798828125,25,5.5300000000,A01525,1,1552633369000
1552633381750.0000000000,25,3.7800000000,A01525,1,1552633369000
1552633381765.6201171875,25,2.0700000000,A01525,1,1552633369000
1552633381781.2500000000,25,0.7900000000,A01525,1,1552633369000
1552633381796.8798828125,25,0.1300000000,A01525,1,1552633369000
1552633381812.5000000000,25,0.0400000000,A01525,1,1552633369000
1552633381828.1201171875,25,0.2500000000,A01525,1,1552633369000
1552633381843.7500000000,25,0.5000000000,A01525,1,1552633369000
1552633381859.3798828125,25,0.6000000000,A01525,1,1552633369000
1552633381875.0000000000,25,0.5200000000,A01525,1,1552633369000
1552633381890.6201171875,25,0.3600000000,A01525,1,1552633369000
1552633381906.2500000000,25,0.1900000000,A01525,1,1552633369000
1552633381921.8798828125,25,0.0400000000,A01525,1,1552633369000
1552633381937.5000000000,25,-0.1700000000,A01525,1,1552633369000
1552633381953.1201171875,25,-0.5500000000,A01525,1,1552633369000
1552633381968.7500000000,25,-1.2100000000,A01525,1,1552633369000
1552633381984.3798828125,25,-2.1800000000,A01525,1,1552633369000
1552633382000.0000000000,25,-3.4200000000,A01525,1,1552633369000
1552633382015.6201171875,25,-4.8100000000,A01525,1,1552633369000
1552633382031.2500000000,25,-6.2700000000,A01525,1,1552633369000
1552633382046.8798828125,25,-7.7700000000,A01525,1,1552633369000
1552633382062.5000000000,25,-9.3500000000,A01525,1,1552633369000
1552633382078.1201171875,25,-11.0600000000,A01525,1,1552633369000
1552633382093.7500000000,25,-12.8100000000,A01525,1,1552633369000
1552633382109.3798828125,25,-14.3200000000,A01525,1,1552633369000
1552633382125.0000000000,25,-15.1900000000,A01525,1,1552633369000
1552633382140.6201171875,25,-15.0200000000,A01525,1,1552633369000
1552633382156.2500000000,25,-13.6100000000,A01525,1,1552633369000
1552633382171.8798828125,25,-11.0600000000,A01525,1,1552633369000
1552633382187.5000000000,25,-7.8300000000,A01525,1,1552633369000
1552633382203.1201171875,25,-4.4600000000,A01525,1,1552633369000
1552633382218.7500000000,25,-1.4600000000,A01525,1,1552633369000
1552633382234.3798828125,25,0.8900000000,A01525,1,1552633369000
1552633382250.0000000000,25,2.6000000000,A01525,1,1552633369000
1552633382265.6201171875,25,3.8500000000,A01525,1,1552633369000
1552633382281.2500000000,25,4.8900000000,A01525,1,1552633369000
1552633382296.8798828125,25,5.8700000000,A01525,1,1552633369000
1552633382312.5000000000,25,6.8000000000,A01525,1,1552633369000
1552633382328.1201171875,25,7.5400000000,A01525,1,1552633369000
1552633382343.7500000000,25,7.9500000000,A01525,1,1552633369000
1552633382359.3798828125,25,7.9900000000,A01525,1,1552633369000
1552633382375.0000000000,25,7.7200000000,A01525,1,1552633369000
1552633382390.6201171875,25,7.3700000000,A01525,1,1552633369000
1552633382406.2500000000,25,7.1900000000,A01525,1,1552633369000
1552633382421.8798828125,25,7.3700000000,A01525,1,1552633369000
1552633382437.5000000000,25,7.9000000000,A01525,1,1552633369000
1552633382453.1201171875,25,8.6000000000,A01525,1,1552633369000
1552633382468.7500000000,25,9.1800000000,A01525,1,1552633369000
1552633382484.3798828125,25,9.4100000000,A01525,1,1552633369000
1552633382500.0000000000,25,9.2300000000,A01525,1,1552633369000
1552633382515.6201171875,25,8.7700000000,A01525,1,1552633369000
1552633382531.2500000000,25,8.3500000000,A01525,1,1552633369000
1552633382546.8798828125,25,8.2300000000,A01525,1,1552633369000
1552633382562.5000000000,25,8.5100000000,A01525,1,1552633369000
1552633382578.1201171875,25,9.0600000000,A01525,1,1552633369000
1552633382593.7500000000,25,9.5700000000,A01525,1,1552633369000
1552633382609.3798828125,25,9.7000000000,A01525,1,1552633369000
1552633382625.0000000000,25,9.2900000000,A01525,1,1552633369000
1552633382640.6201171875,25,8.4100000000,A01525,1,1552633369000
1552633382656.2500000000,25,7.3600000000,A01525,1,1552633369000
1552633382671.8798828125,25,6.5100000000,A01525,1,1552633369000
1552633382687.5000000000,25,6.0100000000,A01525,1,1552633369000
1552633382703.1201171875,25,5.8000000000,A01525,1,1552633369000
1552633382718.7500000000,25,5.5400000000,A01525,1,1552633369000
1552633382734.3798828125,25,4.8500000000,A01525,1,1552633369000
1552633382750.0000000000,25,3.5500000000,A01525,1,1552633369000
1552633382765.6201171875,25,1.8000000000,A01525,1,1552633369000
1552633382781.2500000000,25,-0.0100000000,A01525,1,1552633369000
1552633382796.8798828125,25,-1.4300000000,A01525,1,1552633369000
1552633382812.5000000000,25,-2.3000000000,A01525,1,1552633369000
1552633382828.1201171875,25,-2.8400000000,A01525,1,1552633369000
1552633382843.7500000000,25,-3.5200000000,A01525,1,1552633369000
1552633382859.3798828125,25,-4.8400000000,A01525,1,1552633369000
1552633382875.0000000000,25,-7.0500000000,A01525,1,1552633369000
1552633382890.6201171875,25,-9.9500000000,A01525,1,1552633369000
1552633382906.2500000000,25,-13.0800000000,A01525,1,1552633369000
1552633382921.8798828125,25,-15.9000000000,A01525,1,1552633369000
1552633382937.5000000000,25,-18.0500000000,A01525,1,1552633369000
1552633382953.1201171875,25,-19.3300000000,A01525,1,1552633369000
1552633382968.7500000000,25,-19.7300000000,A01525,1,1552633369000
1552633382984.3798828125,25,-19.2100000000,A01525,1,1552633369000
1552633383000.0000000000,25,-17.6800000000,A01525,1,1552633369000
1552633383015.6201171875,25,-15.1000000000,A01525,1,1552633369000
1552633383031.2500000000,25,-11.5700000000,A01525,1,1552633369000
1552633383046.8798828125,25,-7.4300000000,A01525,1,1552633369000
1552633383062.5000000000,25,-3.1900000000,A01525,1,1552633369000
1552633383078.1201171875,25,0.6400000000,A01525,1,1552633369000
1552633383093.7500000000,25,3.7500000000,A01525,1,1552633369000
1552633383109.3798828125,25,6.0900000000,A01525,1,1552633369000
1552633383125.0000000000,25,7.8300000000,A01525,1,1552633369000
1552633383140.6201171875,25,9.2300000000,A01525,1,1552633369000
1552633383156.2500000000,25,10.4800000000,A01525,1,1552633369000
1552633383171.8798828125,25,11.6500000000,A01525,1,1552633369000
1552633383187.5000000000,25,12.6900000000,A01525,1,1552633369000
1552633383203.1201171875,25,13.4000000000,A01525,1,1552633369000
1552633383218.7500000000,25,13.6100000000,A01525,1,1552633369000
1552633383234.3798828125,25,13.2200000000,A01525,1,1552633369000
1552633383250.0000000000,25,12.2600000000,A01525,1,1552633369000
1552633383265.6201171875,25,10.9800000000,A01525,1,1552633369000
1552633383281.2500000000,25,9.7200000000,A01525,1,1552633369000
1552633383296.8798828125,25,8.8300000000,A01525,1,1552633369000
1552633383312.5000000000,25,8.4800000000,A01525,1,1552633369000
1552633383328.1201171875,25,8.5300000000,A01525,1,1552633369000
1552633383343.7500000000,25,8.6500000000,A01525,1,1552633369000
1552633383359.3798828125,25,8.4200000000,A01525,1,1552633369000
1552633383375.0000000000,25,7.6300000000,A01525,1,1552633369000
1552633383390.6201171875,25,6.3800000000,A01525,1,1552633369000
1552633383406.2500000000,25,5.0100000000,A01525,1,1552633369000
1552633383421.8798828125,25,3.8700000000,A01525,1,1552633369000
1552633383437.5000000000,25,3.1600000000,A01525,1,1552633369000
1552633383453.1201171875,25,2.8000000000,A01525,1,1552633369000
1552633383468.7500000000,25,2.4900000000,A01525,1,1552633369000
1552633383484.3798828125,25,1.9800000000,A01525,1,1552633369000
1552633383500.0000000000,25,1.1900000000,A01525,1,1552633369000
1552633383515.6201171875,25,0.3200000000,A01525,1,1552633369000
1552633383531.2500000000,25,-0.2900000000,A01525,1,1552633369000
1552633383546.8798828125,25,-0.3200000000,A01525,1,1552633369000
1552633383562.5000000000,25,0.2900000000,A01525,1,1552633369000
1552633383578.1201171875,25,1.2800000000,A01525,1,1552633369000
1552633383593.7500000000,25,2.1800000000,A01525,1,1552633369000
1552633383609.3798828125,25,2.5200000000,A01525,1,1552633369000
1552633383625.0000000000,25,1.9600000000,A01525,1,1552633369000
1552633383640.6201171875,25,0.5700000000,A01525,1,1552633369000
1552633383656.2500000000,25,-1.3200000000,A01525,1,1552633369000
1552633383671.8798828125,25,-3.2200000000,A01525,1,1552633369000
1552633383687.5000000000,25,-4.6900000000,A01525,1,1552633369000
1552633383703.1201171875,25,-5.6300000000,A01525,1,1552633369000
1552633383718.7500000000,25,-6.1600000000,A01525,1,1552633369000
1552633383734.3798828125,25,-6.6200000000,A01525,1,1552633369000
1552633383750.0000000000,25,-7.2700000000,A01525,1,1552633369000
1552633383765.6201171875,25,-8.2000000000,A01525,1,1552633369000
1552633383781.2500000000,25,-9.2700000000,A01525,1,1552633369000
1552633383796.8798828125,25,-10.3000000000,A01525,1,1552633369000
1552633383812.5000000000,25,-11.2100000000,A01525,1,1552633369000
1552633383828.1201171875,25,-12.0900000000,A01525,1,1552633369000
1552633383843.7500000000,25,-13.1600000000,A01525,1,1552633369000
1552633383859.3798828125,25,-14.4800000000,A01525,1,1552633369000
1552633383875.0000000000,25,-15.8800000000,A01525,1,1552633369000
1552633383890.6201171875,25,-16.9100000000,A01525,1,1552633369000
1552633383906.2500000000,25,-17.0100000000,A01525,1,1552633369000
1552633383921.8798828125,25,-15.8500000000,A01525,1,1552633369000
1552633383937.5000000000,25,-13.5000000000,A01525,1,1552633369000
1552633383953.1201171875,25,-10.5000000000,A01525,1,1552633369000
1552633383968.7500000000,25,-7.5400000000,A01525,1,1552633369000
1552633383984.3798828125,25,-5.2600000000,A01525,1,1552633369000
1552633384000.0000000000,25,-3.8500000000,A01525,1,1552633369000
1552633384015.6201171875,25,-3.1400000000,A01525,1,1552633369000
1552633384031.2500000000,25,-2.7700000000,A01525,1,1552633369000
1552633384046.8798828125,25,-2.3600000000,A01525,1,1552633369000
1552633384062.5000000000,25,-1.8200000000,A01525,1,1552633369000
1552633384078.1201171875,25,-1.2800000000,A01525,1,1552633369000
1552633384093.7500000000,25,-0.9500000000,A01525,1,1552633369000
1552633384109.3798828125,25,-0.9400000000,A01525,1,1552633369000
1552633384125.0000000000,25,-1.1700000000,A01525,1,1552633369000
1552633384140.6201171875,25,-1.3500000000,A01525,1,1552633369000
1552633384156.2500000000,25,-1.1400000000,A01525,1,1552633369000
1552633384171.8798828125,25,-0.3200000000,A01525,1,1552633369000
1552633384187.5000000000,25,1.1700000000,A01525,1,1552633369000
1552633384203.1201171875,25,3.1600000000,A01525,1,1552633369000
1552633384218.7500000000,25,5.3500000000,A01525,1,1552633369000
1552633384234.3798828125,25,7.4000000000,A01525,1,1552633369000
1552633384250.0000000000,25,9.1000000000,A01525,1,1552633369000
1552633384265.6201171875,25,10.3800000000,A01525,1,1552633369000
1552633384281.2500000000,25,11.3500000000,A01525,1,1552633369000
1552633384296.8798828125,25,12.1000000000,A01525,1,1552633369000
1552633384312.5000000000,25,12.7200000000,A01525,1,1552633369000
1552633384328.1201171875,25,13.1000000000,A01525,1,1552633369000
1552633384343.7500000000,25,12.9900000000,A01525,1,1552633369000
1552633384359.3798828125,25,12.2400000000,A01525,1,1552633369000
1552633384375.0000000000,25,10.8000000000,A01525,1,1552633369000
1552633384390.6201171875,25,8.9200000000,A01525,1,1552633369000
1552633384406.2500000000,25,6.9900000000,A01525,1,1552633369000
1552633384421.8798828125,25,5.3900000000,A01525,1,1552633369000
1552633384437.5000000000,25,4.2800000000,A01525,1,1552633369000
1552633384453.1201171875,25,3.5700000000,A01525,1,1552633369000
1552633384468.7500000000,25,2.9800000000,A01525,1,1552633369000
1552633384484.3798828125,25,2.2400000000,A01525,1,1552633369000
1552633384500.0000000000,25,1.2500000000,A01525,1,1552633369000
1552633384515.6201171875,25,0.0800000000,A01525,1,1552633369000
1552633384531.2500000000,25,-1.1200000000,A01525,1,1552633369000
1552633384546.8798828125,25,-2.2300000000,A01525,1,1552633369000
1552633384562.5000000000,25,-3.2200000000,A01525,1,1552633369000
1552633384578.1201171875,25,-4.1700000000,A01525,1,1552633369000
1552633384593.7500000000,25,-5.0800000000,A01525,1,1552633369000
1552633384609.3798828125,25,-5.9200000000,A01525,1,1552633369000
1552633384625.0000000000,25,-6.5600000000,A01525,1,1552633369000
1552633384640.6201171875,25,-6.9200000000,A01525,1,1552633369000
1552633384656.2500000000,25,-6.9700000000,A01525,1,1552633369000
1552633384671.8798828125,25,-6.8500000000,A01525,1,1552633369000
1552633384687.5000000000,25,-6.7800000000,A01525,1,1552633369000
1552633384703.1201171875,25,-7.0400000000,A01525,1,1552633369000
1552633384718.7500000000,25,-7.8900000000,A01525,1,1552633369000
1552633384734.3798828125,25,-9.4000000000,A01525,1,1552633369000
1552633384750.0000000000,25,-11.4200000000,A01525,1,1552633369000
1552633384765.6201171875,25,-13.5000000000,A01525,1,1552633369000
1552633384781.2500000000,25,-15.0200000000,A01525,1,1552633369000
1552633384796.8798828125,25,-15.3100000000,A01525,1,1552633369000
1552633384812.5000000000,25,-14.0400000000,A01525,1,1552633369000
1552633384828.1201171875,25,-11.3100000000,A01525,1,1552633369000
1552633384843.7500000000,25,-7.6900000000,A01525,1,1552633369000
1552633384859.3798828125,25,-3.9500000000,A01525,1,1552633369000
1552633384875.0000000000,25,-0.7300000000,A01525,1,1552633369000
1552633384890.6201171875,25,1.7400000000,A01525,1,1552633369000
1552633384906.2500000000,25,3.6700000000,A01525,1,1552633369000
1552633384921.8798828125,25,5.5200000000,A01525,1,1552633369000
1552633384937.5000000000,25,7.6600000000,A01525,1,1552633369000
1552633384953.1201171875,25,10.0900000000,A01525,1,1552633369000
1552633384968.7500000000,25,12.4600000000,A01525,1,1552633369000
1552633384984.3798828125,25,14.2600000000,A01525,1,1552633369000
1552633385000.0000000000,25,15.1000000000,A01525,1,1552633369000
1552633385015.6201171875,25,14.9800000000,A01525,1,1552633369000
1552633385031.2500000000,25,14.2000000000,A01525,1,1552633369000
1552633385046.8798828125,25,13.2300000000,A01525,1,1552633369000
1552633385062.5000000000,25,12.3600000000,A01525,1,1552633369000
1552633385078.1201171875,25,11.6300000000,A01525,1,1552633369000
1552633385093.7500000000,25,10.7700000000,A01525,1,1552633369000
1552633385109.3798828125,25,9.5100000000,A01525,1,1552633369000
1552633385125.0000000000,25,7.7700000000,A01525,1,1552633369000
1552633385140.6201171875,25,5.8200000000,A01525,1,1552633369000
1552633385156.2500000000,25,4.1600000000,A01525,1,1552633369000
1552633385171.8798828125,25,3.2400000000,A01525,1,1552633369000
1552633385187.5000000000,25,3.2000000000,A01525,1,1552633369000
1552633385203.1201171875,25,3.7900000000,A01525,1,1552633369000
1552633385218.7500000000,25,4.4300000000,A01525,1,1552633369000
1552633385234.3798828125,25,4.5900000000,A01525,1,1552633369000
1552633385250.0000000000,25,4.0400000000,A01525,1,1552633369000
1552633385265.6201171875,25,2.9700000000,A01525,1,1552633369000
1552633385281.2500000000,25,1.8200000000,A01525,1,1552633369000
1552633385296.8798828125,25,1.1000000000,A01525,1,1552633369000
1552633385312.5000000000,25,1.0000000000,A01525,1,1552633369000
1552633385328.1201171875,25,1.3500000000,A01525,1,1552633369000
1552633385343.7500000000,25,1.6900000000,A01525,1,1552633369000
1552633385359.3798828125,25,1.5800000000,A01525,1,1552633369000
1552633385375.0000000000,25,0.7500000000,A01525,1,1552633369000
1552633385390.6201171875,25,-0.7200000000,A01525,1,1552633369000
1552633385406.2500000000,25,-2.4800000000,A01525,1,1552633369000
1552633385421.8798828125,25,-4.1500000000,A01525,1,1552633369000
1552633385437.5000000000,25,-5.4600000000,A01525,1,1552633369000
1552633385453.1201171875,25,-6.4500000000,A01525,1,1552633369000
1552633385468.7500000000,25,-7.2500000000,A01525,1,1552633369000
1552633385484.3798828125,25,-8.0000000000,A01525,1,1552633369000
1552633385500.0000000000,25,-8.6300000000,A01525,1,1552633369000
1552633385515.6201171875,25,-8.8500000000,A01525,1,1552633369000
1552633385531.2500000000,25,-8.4000000000,A01525,1,1552633369000
1552633385546.8798828125,25,-7.2400000000,A01525,1,1552633369000
1552633385562.5000000000,25,-5.7300000000,A01525,1,1552633369000
1552633385578.1201171875,25,-4.4400000000,A01525,1,1552633369000
1552633385593.7500000000,25,-3.8600000000,A01525,1,1552633369000
1552633385609.3798828125,25,-4.0500000000,A01525,1,1552633369000
1552633385625.0000000000,25,-4.5100000000,A01525,1,1552633369000
1552633385640.6201171875,25,-4.4300000000,A01525,1,1552633369000
1552633385656.2500000000,25,-3.1200000000,A01525,1,1552633369000
1552633385671.8798828125,25,-0.4200000000,A01525,1,1552633369000
1552633385687.5000000000,25,3.2300000000,A01525,1,1552633369000
1552633385703.1201171875,25,7.0000000000,A01525,1,1552633369000
1552633385718.7500000000,25,10.1300000000,A01525,1,1552633369000
1552633385734.3798828125,25,12.2900000000,A01525,1,1552633369000
1552633385750.0000000000,25,13.6800000000,A01525,1,1552633369000
1552633385765.6201171875,25,14.8800000000,A01525,1,1552633369000
1552633385781.2500000000,25,16.3900000000,A01525,1,1552633369000
1552633385796.8798828125,25,18.5000000000,A01525,1,1552633369000
1552633385812.5000000000,25,21.0600000000,A01525,1,1552633369000
1552633385828.1201171875,25,23.6800000000,A01525,1,1552633369000
1552633385843.7500000000,25,25.9200000000,A01525,1,1552633369000
1552633385859.3798828125,25,27.5600000000,A01525,1,1552633369000
1552633385875.0000000000,25,28.6500000000,A01525,1,1552633369000
1552633385890.6201171875,25,29.5200000000,A01525,1,1552633369000
1552633385906.2500000000,25,30.6000000000,A01525,1,1552633369000
1552633385921.8798828125,25,32.1000000000,A01525,1,1552633369000
1552633385937.5000000000,25,33.9600000000,A01525,1,1552633369000
1552633385953.1201171875,25,35.6600000000,A01525,1,1552633369000
1552633385968.7500000000,25,36.5100000000,A01525,1,1552633369000
1552633385984.3798828125,25,35.8100000000,A01525,1,1552633369000
1552633386000.0000000000,25,33.2400000000,A01525,1,1552633369000
1552633386015.6201171875,25,29.0000000000,A01525,1,1552633369000
1552633386031.2500000000,25,23.7100000000,A01525,1,1552633369000
1552633386046.8798828125,25,18.2000000000,A01525,1,1552633369000
1552633386062.5000000000,25,13.1000000000,A01525,1,1552633369000
1552633386078.1201171875,25,8.6700000000,A01525,1,1552633369000
1552633386093.7500000000,25,4.7700000000,A01525,1,1552633369000
1552633386109.3798828125,25,1.0300000000,A01525,1,1552633369000
1552633386125.0000000000,25,-2.8100000000,A01525,1,1552633369000
1552633386140.6201171875,25,-6.8100000000,A01525,1,1552633369000
1552633386156.2500000000,25,-10.7700000000,A01525,1,1552633369000
1552633386171.8798828125,25,-14.3800000000,A01525,1,1552633369000
1552633386187.5000000000,25,-17.5400000000,A01525,1,1552633369000
1552633386203.1201171875,25,-20.3800000000,A01525,1,1552633369000
1552633386218.7500000000,25,-23.2900000000,A01525,1,1552633369000
1552633386234.3798828125,25,-26.6300000000,A01525,1,1552633369000
1552633386250.0000000000,25,-30.5800000000,A01525,1,1552633369000
1552633386265.6201171875,25,-34.9300000000,A01525,1,1552633369000
1552633386281.2500000000,25,-39.2000000000,A01525,1,1552633369000
1552633386296.8798828125,25,-42.8500000000,A01525,1,1552633369000
1552633386312.5000000000,25,-45.5300000000,A01525,1,1552633369000
1552633386328.1201171875,25,-47.2200000000,A01525,1,1552633369000
1552633386343.7500000000,25,-48.1700000000,A01525,1,1552633369000
1552633386359.3798828125,25,-48.7600000000,A01525,1,1552633369000
1552633386375.0000000000,25,-49.2000000000,A01525,1,1552633369000
1552633386390.6201171875,25,-49.5400000000,A01525,1,1552633369000
1552633386406.2500000000,25,-49.6000000000,A01525,1,1552633369000
1552633386421.8798828125,25,-49.2200000000,A01525,1,1552633369000
1552633386437.5000000000,25,-48.4500000000,A01525,1,1552633369000
1552633386453.1201171875,25,-47.5200000000,A01525,1,1552633369000
1552633386468.7500000000,25,-46.7800000000,A01525,1,1552633369000
1552633386484.3798828125,25,-46.4300000000,A01525,1,1552633369000
1552633386500.0000000000,25,-46.4100000000,A01525,1,1552633369000
1552633386515.6201171875,25,-46.3200000000,A01525,1,1552633369000
1552633386531.2500000000,25,-45.6800000000,A01525,1,1552633369000
1552633386546.8798828125,25,-44.1500000000,A01525,1,1552633369000
1552633386562.5000000000,25,-41.6500000000,A01525,1,1552633369000
1552633386578.1201171875,25,-38.3700000000,A01525,1,1552633369000
1552633386593.7500000000,25,-34.5600000000,A01525,1,1552633369000
1552633386609.3798828125,25,-30.3200000000,A01525,1,1552633369000
1552633386625.0000000000,25,-25.4300000000,A01525,1,1552633369000
1552633386640.6201171875,25,-19.4900000000,A01525,1,1552633369000
1552633386656.2500000000,25,-12.0900000000,A01525,1,1552633369000
1552633386671.8798828125,25,-3.1100000000,A01525,1,1552633369000
1552633386687.5000000000,25,7.2200000000,A01525,1,1552633369000
1552633386703.1201171875,25,18.2500000000,A01525,1,1552633369000
1552633386718.7500000000,25,29.1200000000,A01525,1,1552633369000
1552633386734.3798828125,25,38.9300000000,A01525,1,1552633369000
1552633386750.0000000000,25,46.9200000000,A01525,1,1552633369000
1552633386765.6201171875,25,52.5900000000,A01525,1,1552633369000
1552633386781.2500000000,25,55.7300000000,A01525,1,1552633369000
1552633386796.8798828125,25,56.4500000000,A01525,1,1552633369000
1552633386812.5000000000,25,55.0400000000,A01525,1,1552633369000
1552633386828.1201171875,25,51.9500000000,A01525,1,1552633369000
1552633386843.7500000000,25,47.7200000000,A01525,1,1552633369000
1552633386859.3798828125,25,42.8600000000,A01525,1,1552633369000
1552633386875.0000000000,25,37.8900000000,A01525,1,1552633369000
1552633386890.6201171875,25,33.2400000000,A01525,1,1552633369000
1552633386906.2500000000,25,29.2500000000,A01525,1,1552633369000
1552633386921.8798828125,25,26.1400000000,A01525,1,1552633369000
1552633386937.5000000000,25,23.8900000000,A01525,1,1552633369000
1552633386953.1201171875,25,22.3200000000,A01525,1,1552633369000
1552633386968.7500000000,25,21.1900000000,A01525,1,1552633369000
1552633386984.3798828125,25,20.1700000000,A01525,1,1552633369000
1552633387000.0000000000,25,19.0400000000,A01525,1,1552633369000
1552633387015.6201171875,25,17.7200000000,A01525,1,1552633369000
1552633387031.2500000000,25,16.2700000000,A01525,1,1552633369000
1552633387046.8798828125,25,14.8100000000,A01525,1,1552633369000
1552633387062.5000000000,25,13.4800000000,A01525,1,1552633369000
1552633387078.1201171875,25,12.3400000000,A01525,1,1552633369000
1552633387093.7500000000,25,11.3600000000,A01525,1,1552633369000
1552633387109.3798828125,25,10.4600000000,A01525,1,1552633369000
1552633387125.0000000000,25,9.5800000000,A01525,1,1552633369000
1552633387140.6201171875,25,8.7100000000,A01525,1,1552633369000
1552633387156.2500000000,25,7.9100000000,A01525,1,1552633369000
1552633387171.8798828125,25,7.2900000000,A01525,1,1552633369000
1552633387187.5000000000,25,6.8300000000,A01525,1,1552633369000
1552633387203.1201171875,25,6.4200000000,A01525,1,1552633369000
1552633387218.7500000000,25,5.8400000000,A01525,1,1552633369000
1552633387234.3798828125,25,4.8800000000,A01525,1,1552633369000
1552633387250.0000000000,25,3.4600000000,A01525,1,1552633369000
1552633387265.6201171875,25,1.6400000000,A01525,1,1552633369000
1552633387281.2500000000,25,-0.3700000000,A01525,1,1552633369000
1552633387296.8798828125,25,-2.3400000000,A01525,1,1552633369000
1552633387312.5000000000,25,-4.1700000000,A01525,1,1552633369000
1552633387328.1201171875,25,-5.9000000000,A01525,1,1552633369000
1552633387343.7500000000,25,-7.7200000000,A01525,1,1552633369000
1552633387359.3798828125,25,-9.8100000000,A01525,1,1552633369000
1552633387375.0000000000,25,-12.2200000000,A01525,1,1552633369000
1552633387390.6201171875,25,-14.7500000000,A01525,1,1552633369000
1552633387406.2500000000,25,-17.0100000000,A01525,1,1552633369000
1552633387421.8798828125,25,-18.4600000000,A01525,1,1552633369000
1552633387437.5000000000,25,-18.7200000000,A01525,1,1552633369000
1552633387453.1201171875,25,-17.6300000000,A01525,1,1552633369000
1552633387468.7500000000,25,-15.3800000000,A01525,1,1552633369000
1552633387484.3798828125,25,-12.4300000000,A01525,1,1552633369000
1552633387500.0000000000,25,-9.3200000000,A01525,1,1552633369000
1552633387515.6201171875,25,-6.5200000000,A01525,1,1552633369000
1552633387531.2500000000,25,-4.2100000000,A01525,1,1552633369000
1552633387546.8798828125,25,-2.3800000000,A01525,1,1552633369000
1552633387562.5000000000,25,-0.9100000000,A01525,1,1552633369000
1552633387578.1201171875,25,0.3200000000,A01525,1,1552633369000
1552633387593.7500000000,25,1.3200000000,A01525,1,1552633369000
1552633387609.3798828125,25,2.0300000000,A01525,1,1552633369000
1552633387625.0000000000,25,2.4200000000,A01525,1,1552633369000
1552633387640.6201171875,25,2.5500000000,A01525,1,1552633369000
1552633387656.2500000000,25,2.5500000000,A01525,1,1552633369000
1552633387671.8798828125,25,2.6100000000,A01525,1,1552633369000
1552633387687.5000000000,25,2.8200000000,A01525,1,1552633369000
1552633387703.1201171875,25,3.1500000000,A01525,1,1552633369000
1552633387718.7500000000,25,3.4600000000,A01525,1,1552633369000
1552633387734.3798828125,25,3.5500000000,A01525,1,1552633369000
1552633387750.0000000000,25,3.3300000000,A01525,1,1552633369000
1552633387765.6201171875,25,2.9100000000,A01525,1,1552633369000
1552633387781.2500000000,25,2.5600000000,A01525,1,1552633369000
1552633387796.8798828125,25,2.5600000000,A01525,1,1552633369000
1552633387812.5000000000,25,3.0900000000,A01525,1,1552633369000
1552633387828.1201171875,25,4.0600000000,A01525,1,1552633369000
1552633387843.7500000000,25,5.1600000000,A01525,1,1552633369000
1552633387859.3798828125,25,6.0400000000,A01525,1,1552633369000
1552633387875.0000000000,25,6.4600000000,A01525,1,1552633369000
1552633387890.6201171875,25,6.4600000000,A01525,1,1552633369000
1552633387906.2500000000,25,6.2800000000,A01525,1,1552633369000
1552633387921.8798828125,25,6.2500000000,A01525,1,1552633369000
1552633387937.5000000000,25,6.5000000000,A01525,1,1552633369000
1552633387953.1201171875,25,6.9700000000,A01525,1,1552633369000
1552633387968.7500000000,25,7.3500000000,A01525,1,1552633369000
1552633387984.3798828125,25,7.2900000000,A01525,1,1552633369000
1552633388000.0000000000,25,6.5900000000,A01525,1,1552633369000
1552633388015.6201171875,25,5.2700000000,A01525,1,1552633369000
1552633388031.2500000000,25,3.5300000000,A01525,1,1552633369000
1552633388046.8798828125,25,1.6800000000,A01525,1,1552633369000
1552633388062.5000000000,25,0.0100000000,A01525,1,1552633369000
1552633388078.1201171875,25,-1.3900000000,A01525,1,1552633369000
1552633388093.7500000000,25,-2.5600000000,A01525,1,1552633369000
1552633388109.3798828125,25,-3.6900000000,A01525,1,1552633369000
1552633388125.0000000000,25,-4.9900000000,A01525,1,1552633369000
1552633388140.6201171875,25,-6.6000000000,A01525,1,1552633369000
1552633388156.2500000000,25,-8.5000000000,A01525,1,1552633369000
1552633388171.8798828125,25,-10.6100000000,A01525,1,1552633369000
1552633388187.5000000000,25,-12.7800000000,A01525,1,1552633369000
1552633388203.1201171875,25,-14.9400000000,A01525,1,1552633369000
1552633388218.7500000000,25,-17.0300000000,A01525,1,1552633369000
1552633388234.3798828125,25,-18.9200000000,A01525,1,1552633369000
1552633388250.0000000000,25,-20.3400000000,A01525,1,1552633369000
1552633388265.6201171875,25,-20.8600000000,A01525,1,1552633369000
1552633388281.2500000000,25,-20.0400000000,A01525,1,1552633369000
1552633388296.8798828125,25,-17.6800000000,A01525,1,1552633369000
1552633388312.5000000000,25,-13.9800000000,A01525,1,1552633369000
1552633388328.1201171875,25,-9.5200000000,A01525,1,1552633369000
1552633388343.7500000000,25,-5.0700000000,A01525,1,1552633369000
1552633388359.3798828125,25,-1.2400000000,A01525,1,1552633369000
1552633388375.0000000000,25,1.7500000000,A01525,1,1552633369000
1552633388390.6201171875,25,4.0700000000,A01525,1,1552633369000
1552633388406.2500000000,25,6.0700000000,A01525,1,1552633369000
1552633388421.8798828125,25,8.0800000000,A01525,1,1552633369000
1552633388437.5000000000,25,10.0400000000,A01525,1,1552633369000
1552633388453.1201171875,25,11.6500000000,A01525,1,1552633369000
1552633388468.7500000000,25,12.4700000000,A01525,1,1552633369000
1552633388484.3798828125,25,12.1900000000,A01525,1,1552633369000
1552633388500.0000000000,25,10.8700000000,A01525,1,1552633369000
1552633388515.6201171875,25,8.9100000000,A01525,1,1552633369000
1552633388531.2500000000,25,6.9500000000,A01525,1,1552633369000
1552633388546.8798828125,25,5.5000000000,A01525,1,1552633369000
1552633388562.5000000000,25,4.8200000000,A01525,1,1552633369000
1552633388578.1201171875,25,4.7400000000,A01525,1,1552633369000
1552633388593.7500000000,25,4.9100000000,A01525,1,1552633369000
1552633388609.3798828125,25,4.9600000000,A01525,1,1552633369000
1552633388625.0000000000,25,4.7500000000,A01525,1,1552633369000
1552633388640.6201171875,25,4.4200000000,A01525,1,1552633369000
1552633388656.2500000000,25,4.2800000000,A01525,1,1552633369000
1552633388671.8798828125,25,4.6200000000,A01525,1,1552633369000
1552633388687.5000000000,25,5.4500000000,A01525,1,1552633369000
1552633388703.1201171875,25,6.6000000000,A01525,1,1552633369000
1552633388718.7500000000,25,7.7100000000,A01525,1,1552633369000
1552633388734.3798828125,25,8.4000000000,A01525,1,1552633369000
1552633388750.0000000000,25,8.4600000000,A01525,1,1552633369000
1552633388765.6201171875,25,7.8800000000,A01525,1,1552633369000
1552633388781.2500000000,25,6.8100000000,A01525,1,1552633369000
1552633388796.8798828125,25,5.5100000000,A01525,1,1552633369000
1552633388812.5000000000,25,4.2000000000,A01525,1,1552633369000
1552633388828.1201171875,25,2.9900000000,A01525,1,1552633369000
1552633388843.7500000000,25,1.8700000000,A01525,1,1552633369000
1552633388859.3798828125,25,0.7700000000,A01525,1,1552633369000
1552633388875.0000000000,25,-0.3500000000,A01525,1,1552633369000
1552633388890.6201171875,25,-1.4300000000,A01525,1,1552633369000
1552633388906.2500000000,25,-2.2800000000,A01525,1,1552633369000
1552633388921.8798828125,25,-2.6500000000,A01525,1,1552633369000
1552633388937.5000000000,25,-2.4700000000,A01525,1,1552633369000
1552633388953.1201171875,25,-1.9500000000,A01525,1,1552633369000
1552633388968.7500000000,25,-1.5800000000,A01525,1,1552633369000
1552633388984.3798828125,25,-1.9300000000,A01525,1,1552633369000
1552633389000.0000000000,25,-3.4200000000,A01525,1,1552633369000
1552633389015.6201171875,25,-6.0500000000,A01525,1,1552633369000
1552633389031.2500000000,25,-9.3800000000,A01525,1,1552633369000
1552633389046.8798828125,25,-12.7200000000,A01525,1,1552633369000
1552633389062.5000000000,25,-15.3600000000,A01525,1,1552633369000
1552633389078.1201171875,25,-16.8700000000,A01525,1,1552633369000
1552633389093.7500000000,25,-17.1400000000,A01525,1,1552633369000
1552633389109.3798828125,25,-16.3500000000,A01525,1,1552633369000
1552633389125.0000000000,25,-14.7300000000,A01525,1,1552633369000
1552633389140.6201171875,25,-12.5500000000,A01525,1,1552633369000
1552633389156.2500000000,25,-9.9800000000,A01525,1,1552633369000
1552633389171.8798828125,25,-7.1600000000,A01525,1,1552633369000
1552633389187.5000000000,25,-4.2300000000,A01525,1,1552633369000
1552633389203.1201171875,25,-1.3700000000,A01525,1,1552633369000
1552633389218.7500000000,25,1.2500000000,A01525,1,1552633369000
1552633389234.3798828125,25,3.4900000000,A01525,1,1552633369000
1552633389250.0000000000,25,5.3200000000,A01525,1,1552633369000
1552633389265.6201171875,25,6.8000000000,A01525,1,1552633369000
1552633389281.2500000000,25,8.0800000000,A01525,1,1552633369000
1552633389296.8798828125,25,9.2900000000,A01525,1,1552633369000
1552633389312.5000000000,25,10.4100000000,A01525,1,1552633369000
1552633389328.1201171875,25,11.2600000000,A01525,1,1552633369000
1552633389343.7500000000,25,11.5800000000,A01525,1,1552633369000
1552633389359.3798828125,25,11.1800000000,A01525,1,1552633369000
1552633389375.0000000000,25,10.1600000000,A01525,1,1552633369000
1552633389390.6201171875,25,8.8400000000,A01525,1,1552633369000
1552633389406.2500000000,25,7.7100000000,A01525,1,1552633369000
1552633389421.8798828125,25,7.1400000000,A01525,1,1552633369000
1552633389437.5000000000,25,7.2000000000,A01525,1,1552633369000
1552633389453.1201171875,25,7.6400000000,A01525,1,1552633369000
1552633389468.7500000000,25,8.1200000000,A01525,1,1552633369000
1552633389484.3798828125,25,8.3800000000,A01525,1,1552633369000
1552633389500.0000000000,25,8.4900000000,A01525,1,1552633369000
1552633389515.6201171875,25,8.6900000000,A01525,1,1552633369000
1552633389531.2500000000,25,9.2400000000,A01525,1,1552633369000
1552633389546.8798828125,25,10.2000000000,A01525,1,1552633369000
1552633389562.5000000000,25,11.2700000000,A01525,1,1552633369000
1552633389578.1201171875,25,11.9600000000,A01525,1,1552633369000
1552633389593.7500000000,25,11.8600000000,A01525,1,1552633369000
1552633389609.3798828125,25,10.8100000000,A01525,1,1552633369000
1552633389625.0000000000,25,9.0100000000,A01525,1,1552633369000
1552633389640.6201171875,25,6.9400000000,A01525,1,1552633369000
1552633389656.2500000000,25,5.1300000000,A01525,1,1552633369000
1552633389671.8798828125,25,3.9700000000,A01525,1,1552633369000
1552633389687.5000000000,25,3.5100000000,A01525,1,1552633369000
1552633389703.1201171875,25,3.4700000000,A01525,1,1552633369000
1552633389718.7500000000,25,3.3500000000,A01525,1,1552633369000
1552633389734.3798828125,25,2.6900000000,A01525,1,1552633369000
1552633389750.0000000000,25,1.2800000000,A01525,1,1552633369000
1552633389765.6201171875,25,-0.7200000000,A01525,1,1552633369000
1552633389781.2500000000,25,-2.8500000000,A01525,1,1552633369000
1552633389796.8798828125,25,-4.5800000000,A01525,1,1552633369000
1552633389812.5000000000,25,-5.6400000000,A01525,1,1552633369000
1552633389828.1201171875,25,-6.1900000000,A01525,1,1552633369000
1552633389843.7500000000,25,-6.7300000000,A01525,1,1552633369000
1552633389859.3798828125,25,-7.8900000000,A01525,1,1552633369000
1552633389875.0000000000,25,-10.0500000000,A01525,1,1552633369000
1552633389890.6201171875,25,-13.2000000000,A01525,1,1552633369000
1552633389906.2500000000,25,-16.8600000000,A01525,1,1552633369000
1552633389921.8798828125,25,-20.2900000000,A01525,1,1552633369000
1552633389937.5000000000,25,-22.8000000000,A01525,1,1552633369000
1552633389953.1201171875,25,-23.9600000000,A01525,1,1552633369000
1552633389968.7500000000,25,-23.6700000000,A01525,1,1552633369000
1552633389984.3798828125,25,-22.0800000000,A01525,1,1552633369000
1552633390000.0000000000,25,-19.5000000000,A01525,1,1552633369000
1552633390015.6201171875,25,-16.2000000000,A01525,1,1552633369000
1552633390031.2500000000,25,-12.4800000000,A01525,1,1552633369000
1552633390046.8798828125,25,-8.5300000000,A01525,1,1552633369000
1552633390062.5000000000,25,-4.5500000000,A01525,1,1552633369000
1552633390078.1201171875,25,-0.7400000000,A01525,1,1552633369000
1552633390093.7500000000,25,2.7000000000,A01525,1,1552633369000
1552633390109.3798828125,25,5.6000000000,A01525,1,1552633369000
1552633390125.0000000000,25,7.8700000000,A01525,1,1552633369000
1552633390140.6201171875,25,9.5900000000,A01525,1,1552633369000
1552633390156.2500000000,25,10.9600000000,A01525,1,1552633369000
1552633390171.8798828125,25,12.1700000000,A01525,1,1552633369000
1552633390187.5000000000,25,13.3500000000,A01525,1,1552633369000
1552633390203.1201171875,25,14.3800000000,A01525,1,1552633369000
1552633390218.7500000000,25,15.0700000000,A01525,1,1552633369000
1552633390234.3798828125,25,15.2300000000,A01525,1,1552633369000
1552633390250.0000000000,25,14.8400000000,A01525,1,1552633369000
1552633390265.6201171875,25,14.1300000000,A01525,1,1552633369000
1552633390281.2500000000,25,13.5000000000,A01525,1,1552633369000
1552633390296.8798828125,25,13.3100000000,A01525,1,1552633369000
1552633390312.5000000000,25,13.6300000000,A01525,1,1552633369000
1552633390328.1201171875,25,14.2300000000,A01525,1,1552633369000
1552633390343.7500000000,25,14.7500000000,A01525,1,1552633369000
1552633390359.3798828125,25,14.9300000000,A01525,1,1552633369000
1552633390375.0000000000,25,14.7700000000,A01525,1,1552633369000
1552633390390.6201171875,25,14.5400000000,A01525,1,1552633369000
1552633390406.2500000000,25,14.5800000000,A01525,1,1552633369000
1552633390421.8798828125,25,15.1000000000,A01525,1,1552633369000
1552633390437.5000000000,25,15.9600000000,A01525,1,1552633369000
1552633390453.1201171875,25,16.7700000000,A01525,1,1552633369000
1552633390468.7500000000,25,17.0500000000,A01525,1,1552633369000
1552633390484.3798828125,25,16.4500000000,A01525,1,1552633369000
1552633390500.0000000000,25,14.9000000000,A01525,1,1552633369000
1552633390515.6201171875,25,12.6800000000,A01525,1,1552633369000
1552633390531.2500000000,25,10.2900000000,A01525,1,1552633369000
1552633390546.8798828125,25,8.2600000000,A01525,1,1552633369000
1552633390562.5000000000,25,6.9900000000,A01525,1,1552633369000
1552633390578.1201171875,25,6.6100000000,A01525,1,1552633369000
1552633390593.7500000000,25,6.9400000000,A01525,1,1552633369000
1552633390609.3798828125,25,7.6600000000,A01525,1,1552633369000
1552633390625.0000000000,25,8.4600000000,A01525,1,1552633369000
1552633390640.6201171875,25,9.2200000000,A01525,1,1552633369000
1552633390656.2500000000,25,10.0400000000,A01525,1,1552633369000
1552633390671.8798828125,25,11.1700000000,A01525,1,1552633369000
1552633390687.5000000000,25,12.8000000000,A01525,1,1552633369000
1552633390703.1201171875,25,14.8200000000,A01525,1,1552633369000
1552633390718.7500000000,25,16.8300000000,A01525,1,1552633369000
1552633390734.3798828125,25,18.1600000000,A01525,1,1552633369000
1552633390750.0000000000,25,18.1900000000,A01525,1,1552633369000
1552633390765.6201171875,25,16.6600000000,A01525,1,1552633369000
1552633390781.2500000000,25,13.8700000000,A01525,1,1552633369000
1552633390796.8798828125,25,10.6800000000,A01525,1,1552633369000
1552633390812.5000000000,25,8.1600000000,A01525,1,1552633369000
1552633390828.1201171875,25,7.2100000000,A01525,1,1552633369000
1552633390843.7500000000,25,8.1100000000,A01525,1,1552633369000
1552633390859.3798828125,25,10.4700000000,A01525,1,1552633369000
1552633390875.0000000000,25,13.4200000000,A01525,1,1552633369000
1552633390890.6201171875,25,16.0400000000,A01525,1,1552633369000
1552633390906.2500000000,25,17.6600000000,A01525,1,1552633369000
1552633390921.8798828125,25,17.9300000000,A01525,1,1552633369000
1552633390937.5000000000,25,16.5900000000,A01525,1,1552633369000
1552633390953.1201171875,25,13.5000000000,A01525,1,1552633369000
1552633390968.7500000000,25,8.7500000000,A01525,1,1552633369000
1552633390984.3798828125,25,3.0400000000,A01525,1,1552633369000
1552633391000.0000000000,25,-2.1700000000,A01525,1,1552633369000
1552633391015.6201171875,25,-5.1200000000,A01525,1,1552633369000
1552633391031.2500000000,25,-4.5500000000,A01525,1,1552633369000
1552633391046.8798828125,25,-0.6200000000,A01525,1,1552633369000
1552633391062.5000000000,25,4.9100000000,A01525,1,1552633369000
1552633391078.1201171875,25,9.2400000000,A01525,1,1552633369000
1552633391093.7500000000,25,9.9300000000,A01525,1,1552633369000
1552633391109.3798828125,25,6.1100000000,A01525,1,1552633369000
1552633391125.0000000000,25,-1.0900000000,A01525,1,1552633369000
1552633391140.6201171875,25,-9.1000000000,A01525,1,1552633369000
1552633391156.2500000000,25,-15.1600000000,A01525,1,1552633369000
1552633391171.8798828125,25,-17.5500000000,A01525,1,1552633369000
1552633391187.5000000000,25,-16.0700000000,A01525,1,1552633369000
1552633391203.1201171875,25,-11.8000000000,A01525,1,1552633369000
1552633391218.7500000000,25,-6.4100000000,A01525,1,1552633369000
1552633391234.3798828125,25,-1.4000000000,A01525,1,1552633369000
1552633391250.0000000000,25,2.3600000000,A01525,1,1552633369000
1552633391265.6201171875,25,4.6500000000,A01525,1,1552633369000
1552633391281.2500000000,25,5.8300000000,A01525,1,1552633369000
1552633391296.8798828125,25,6.5600000000,A01525,1,1552633369000
1552633391312.5000000000,25,7.5200000000,A01525,1,1552633369000
1552633391328.1201171875,25,9.2400000000,A01525,1,1552633369000
1552633391343.7500000000,25,12.0900000000,A01525,1,1552633369000
1552633391359.3798828125,25,16.3400000000,A01525,1,1552633369000
1552633391375.0000000000,25,22.3200000000,A01525,1,1552633369000
1552633391390.6201171875,25,30.4100000000,A01525,1,1552633369000
1552633391406.2500000000,25,41.0100000000,A01525,1,1552633369000
1552633391421.8798828125,25,54.2700000000,A01525,1,1552633369000
1552633391437.5000000000,25,70.0200000000,A01525,1,1552633369000
1552633391453.1201171875,25,87.7000000000,A01525,1,1552633369000
1552633391468.7500000000,25,106.4200000000,A01525,1,1552633369000
1552633391484.3798828125,25,124.9600000000,A01525,1,1552633369000
1552633391500.0000000000,25,141.7000000000,A01525,1,1552633369000
1552633391515.6201171875,25,154.6800000000,A01525,1,1552633369000
1552633391531.2500000000,25,161.8100000000,A01525,1,1552633369000
1552633391546.8798828125,25,161.4600000000,A01525,1,1552633369000
1552633391562.5000000000,25,152.9200000000,A01525,1,1552633369000
1552633391578.1201171875,25,136.8000000000,A01525,1,1552633369000
1552633391593.7500000000,25,114.8200000000,A01525,1,1552633369000
1552633391609.3798828125,25,89.4500000000,A01525,1,1552633369000
1552633391625.0000000000,25,63.4000000000,A01525,1,1552633369000
1552633391640.6201171875,25,39.3300000000,A01525,1,1552633369000
1552633391656.2500000000,25,19.5900000000,A01525,1,1552633369000
1552633391671.8798828125,25,5.8200000000,A01525,1,1552633369000
1552633391687.5000000000,25,-1.6700000000,A01525,1,1552633369000
1552633391703.1201171875,25,-4.1700000000,A01525,1,1552633369000
1552633391718.7500000000,25,-4.4500000000,A01525,1,1552633369000
1552633391734.3798828125,25,-5.8400000000,A01525,1,1552633369000
1552633391750.0000000000,25,-10.7300000000,A01525,1,1552633369000
1552633391765.6201171875,25,-19.5400000000,A01525,1,1552633369000
1552633391781.2500000000,25,-30.6300000000,A01525,1,1552633369000
1552633391796.8798828125,25,-41.2400000000,A01525,1,1552633369000
1552633391812.5000000000,25,-49.0300000000,A01525,1,1552633369000
1552633391828.1201171875,25,-53.1800000000,A01525,1,1552633369000
1552633391843.7500000000,25,-54.5200000000,A01525,1,1552633369000
1552633391859.3798828125,25,-54.7900000000,A01525,1,1552633369000
1552633391875.0000000000,25,-55.5300000000,A01525,1,1552633369000
1552633391890.6201171875,25,-57.4300000000,A01525,1,1552633369000
1552633391906.2500000000,25,-60.3000000000,A01525,1,1552633369000
1552633391921.8798828125,25,-63.5800000000,A01525,1,1552633369000
1552633391937.5000000000,25,-66.9100000000,A01525,1,1552633369000
1552633391953.1201171875,25,-70.1500000000,A01525,1,1552633369000
1552633391968.7500000000,25,-73.3000000000,A01525,1,1552633369000
1552633391984.3798828125,25,-76.0100000000,A01525,1,1552633369000
1552633392000.0000000000,25,-77.5400000000,A01525,1,1552633369000
1552633392015.6201171875,25,-77.0400000000,A01525,1,1552633369000
1552633392031.2500000000,25,-73.8900000000,A01525,1,1552633369000
1552633392046.8798828125,25,-68.2300000000,A01525,1,1552633369000
1552633392062.5000000000,25,-61.0000000000,A01525,1,1552633369000
1552633392078.1201171875,25,-53.6700000000,A01525,1,1552633369000
1552633392093.7500000000,25,-47.6800000000,A01525,1,1552633369000
1552633392109.3798828125,25,-43.8600000000,A01525,1,1552633369000
1552633392125.0000000000,25,-42.1600000000,A01525,1,1552633369000
1552633392140.6201171875,25,-41.8300000000,A01525,1,1552633369000
1552633392156.2500000000,25,-41.8900000000,A01525,1,1552633369000
1552633392171.8798828125,25,-41.6300000000,A01525,1,1552633369000
1552633392187.5000000000,25,-40.8300000000,A01525,1,1552633369000
1552633392203.1201171875,25,-39.8100000000,A01525,1,1552633369000
1552633392218.7500000000,25,-39.0500000000,A01525,1,1552633369000
1552633392234.3798828125,25,-38.9400000000,A01525,1,1552633369000
1552633392250.0000000000,25,-39.6300000000,A01525,1,1552633369000
1552633392265.6201171875,25,-40.9400000000,A01525,1,1552633369000
1552633392281.2500000000,25,-42.6000000000,A01525,1,1552633369000
1552633392296.8798828125,25,-44.2600000000,A01525,1,1552633369000
1552633392312.5000000000,25,-45.5900000000,A01525,1,1552633369000
1552633392328.1201171875,25,-46.3900000000,A01525,1,1552633369000
1552633392343.7500000000,25,-46.5400000000,A01525,1,1552633369000
1552633392359.3798828125,25,-46.0700000000,A01525,1,1552633369000
1552633392375.0000000000,25,-45.1500000000,A01525,1,1552633369000
1552633392390.6201171875,25,-44.1400000000,A01525,1,1552633369000
1552633392406.2500000000,25,-43.3200000000,A01525,1,1552633369000
1552633392421.8798828125,25,-42.9200000000,A01525,1,1552633369000
1552633392437.5000000000,25,-42.8900000000,A01525,1,1552633369000
1552633392453.1201171875,25,-42.9800000000,A01525,1,1552633369000
1552633392468.7500000000,25,-42.8000000000,A01525,1,1552633369000
1552633392484.3798828125,25,-41.9800000000,A01525,1,1552633369000
1552633392500.0000000000,25,-40.3100000000,A01525,1,1552633369000
1552633392515.6201171875,25,-37.7600000000,A01525,1,1552633369000
1552633392531.2500000000,25,-34.4900000000,A01525,1,1552633369000
1552633392546.8798828125,25,-30.7200000000,A01525,1,1552633369000
1552633392562.5000000000,25,-26.6900000000,A01525,1,1552633369000
1552633392578.1201171875,25,-22.6000000000,A01525,1,1552633369000
1552633392593.7500000000,25,-18.5900000000,A01525,1,1552633369000
1552633392609.3798828125,25,-14.8000000000,A01525,1,1552633369000
1552633392625.0000000000,25,-11.2900000000,A01525,1,1552633369000
1552633392640.6201171875,25,-8.0700000000,A01525,1,1552633369000
1552633392656.2500000000,25,-5.0800000000,A01525,1,1552633369000
1552633392671.8798828125,25,-2.2400000000,A01525,1,1552633369000
1552633392687.5000000000,25,0.4700000000,A01525,1,1552633369000
1552633392703.1201171875,25,2.9300000000,A01525,1,1552633369000
1552633392718.7500000000,25,4.9700000000,A01525,1,1552633369000
1552633392734.3798828125,25,6.4300000000,A01525,1,1552633369000
1552633392750.0000000000,25,7.2300000000,A01525,1,1552633369000
1552633392765.6201171875,25,7.5300000000,A01525,1,1552633369000
1552633392781.2500000000,25,7.6500000000,A01525,1,1552633369000
1552633392796.8798828125,25,7.9000000000,A01525,1,1552633369000
1552633392812.5000000000,25,8.5100000000,A01525,1,1552633369000
1552633392828.1201171875,25,9.4700000000,A01525,1,1552633369000
1552633392843.7500000000,25,10.5500000000,A01525,1,1552633369000
1552633392859.3798828125,25,11.4200000000,A01525,1,1552633369000
1552633392875.0000000000,25,11.8400000000,A01525,1,1552633369000
1552633392890.6201171875,25,11.7200000000,A01525,1,1552633369000
1552633392906.2500000000,25,11.1500000000,A01525,1,1552633369000
1552633392921.8798828125,25,10.3600000000,A01525,1,1552633369000
1552633392937.5000000000,25,9.5100000000,A01525,1,1552633369000
1552633392953.1201171875,25,8.7200000000,A01525,1,1552633369000
1552633392968.7500000000,25,7.9100000000,A01525,1,1552633369000
1552633392984.3798828125,25,6.9600000000,A01525,1,1552633369000
1552633393000.0000000000,25,5.7600000000,A01525,1,1552633369000
1552633393015.6201171875,25,4.3300000000,A01525,1,1552633369000
1552633393031.2500000000,25,2.7900000000,A01525,1,1552633369000
1552633393046.8798828125,25,1.3600000000,A01525,1,1552633369000
1552633393062.5000000000,25,0.2200000000,A01525,1,1552633369000
1552633393078.1201171875,25,-0.6100000000,A01525,1,1552633369000
1552633393093.7500000000,25,-1.2400000000,A01525,1,1552633369000
1552633393109.3798828125,25,-1.8400000000,A01525,1,1552633369000
1552633393125.0000000000,25,-2.5900000000,A01525,1,1552633369000
1552633393140.6201171875,25,-3.5600000000,A01525,1,1552633369000
1552633393156.2500000000,25,-4.6900000000,A01525,1,1552633369000
1552633393171.8798828125,25,-5.8800000000,A01525,1,1552633369000
1552633393187.5000000000,25,-7.0900000000,A01525,1,1552633369000
1552633393203.1201171875,25,-8.4300000000,A01525,1,1552633369000
1552633393218.7500000000,25,-10.1100000000,A01525,1,1552633369000
1552633393234.3798828125,25,-12.3800000000,A01525,1,1552633369000
1552633393250.0000000000,25,-15.3900000000,A01525,1,1552633369000
1552633393265.6201171875,25,-19.0400000000,A01525,1,1552633369000
1552633393281.2500000000,25,-22.9800000000,A01525,1,1552633369000
1552633393296.8798828125,25,-26.6200000000,A01525,1,1552633369000
1552633393312.5000000000,25,-29.4300000000,A01525,1,1552633369000
1552633393328.1201171875,25,-31.0400000000,A01525,1,1552633369000
1552633393343.7500000000,25,-31.3500000000,A01525,1,1552633369000
1552633393359.3798828125,25,-30.5100000000,A01525,1,1552633369000
1552633393375.0000000000,25,-28.7300000000,A01525,1,1552633369000
1552633393390.6201171875,25,-26.1900000000,A01525,1,1552633369000
1552633393406.2500000000,25,-22.9400000000,A01525,1,1552633369000
1552633393421.8798828125,25,-18.9900000000,A01525,1,1552633369000
1552633393437.5000000000,25,-14.3900000000,A01525,1,1552633369000
1552633393453.1201171875,25,-9.3900000000,A01525,1,1552633369000
1552633393468.7500000000,25,-4.4200000000,A01525,1,1552633369000
1552633393484.3798828125,25,0.0800000000,A01525,1,1552633369000
1552633393500.0000000000,25,3.7700000000,A01525,1,1552633369000
1552633393515.6201171875,25,6.6200000000,A01525,1,1552633369000
1552633393531.2500000000,25,8.8200000000,A01525,1,1552633369000
1552633393546.8798828125,25,10.6500000000,A01525,1,1552633369000
1552633393562.5000000000,25,12.2600000000,A01525,1,1552633369000
1552633393578.1201171875,25,13.6300000000,A01525,1,1552633369000
1552633393593.7500000000,25,14.5500000000,A01525,1,1552633369000
1552633393609.3798828125,25,14.7900000000,A01525,1,1552633369000
1552633393625.0000000000,25,14.2600000000,A01525,1,1552633369000
1552633393640.6201171875,25,13.0900000000,A01525,1,1552633369000
1552633393656.2500000000,25,11.6400000000,A01525,1,1552633369000
1552633393671.8798828125,25,10.3500000000,A01525,1,1552633369000
1552633393687.5000000000,25,9.5900000000,A01525,1,1552633369000
1552633393703.1201171875,25,9.5900000000,A01525,1,1552633369000
1552633393718.7500000000,25,10.2700000000,A01525,1,1552633369000
1552633393734.3798828125,25,11.3700000000,A01525,1,1552633369000
1552633393750.0000000000,25,12.5200000000,A01525,1,1552633369000
1552633393765.6201171875,25,13.3600000000,A01525,1,1552633369000
1552633393781.2500000000,25,13.6500000000,A01525,1,1552633369000
1552633393796.8798828125,25,13.3400000000,A01525,1,1552633369000
1552633393812.5000000000,25,12.5100000000,A01525,1,1552633369000
1552633393828.1201171875,25,11.2600000000,A01525,1,1552633369000
1552633393843.7500000000,25,9.6600000000,A01525,1,1552633369000
1552633393859.3798828125,25,7.7300000000,A01525,1,1552633369000
1552633393875.0000000000,25,5.4700000000,A01525,1,1552633369000
1552633393890.6201171875,25,2.9800000000,A01525,1,1552633369000
1552633393906.2500000000,25,0.4600000000,A01525,1,1552633369000
1552633393921.8798828125,25,-1.7900000000,A01525,1,1552633369000
1552633393937.5000000000,25,-3.5200000000,A01525,1,1552633369000
1552633393953.1201171875,25,-4.6600000000,A01525,1,1552633369000
1552633393968.7500000000,25,-5.3200000000,A01525,1,1552633369000
1552633393984.3798828125,25,-5.8600000000,A01525,1,1552633369000
1552633394000.0000000000,25,-6.5800000000,A01525,1,1552633369000
1552633394015.6201171875,25,-7.7100000000,A01525,1,1552633369000
1552633394031.2500000000,25,-9.2100000000,A01525,1,1552633369000
1552633394046.8798828125,25,-10.9400000000,A01525,1,1552633369000
1552633394062.5000000000,25,-12.7100000000,A01525,1,1552633369000
1552633394078.1201171875,25,-14.5000000000,A01525,1,1552633369000
1552633394093.7500000000,25,-16.4400000000,A01525,1,1552633369000
1552633394109.3798828125,25,-18.6700000000,A01525,1,1552633369000
1552633394125.0000000000,25,-21.1100000000,A01525,1,1552633369000
1552633394140.6201171875,25,-23.3000000000,A01525,1,1552633369000
1552633394156.2500000000,25,-24.5600000000,A01525,1,1552633369000
1552633394171.8798828125,25,-24.1800000000,A01525,1,1552633369000
1552633394187.5000000000,25,-21.8600000000,A01525,1,1552633369000
1552633394203.1201171875,25,-17.9200000000,A01525,1,1552633369000
1552633394218.7500000000,25,-13.1100000000,A01525,1,1552633369000
1552633394234.3798828125,25,-8.3900000000,A01525,1,1552633369000
1552633394250.0000000000,25,-4.4200000000,A01525,1,1552633369000
1552633394265.6201171875,25,-1.3700000000,A01525,1,1552633369000
1552633394281.2500000000,25,1.0700000000,A01525,1,1552633369000
1552633394296.8798828125,25,3.3200000000,A01525,1,1552633369000
1552633394312.5000000000,25,5.6600000000,A01525,1,1552633369000
1552633394328.1201171875,25,7.9800000000,A01525,1,1552633369000
1552633394343.7500000000,25,9.9100000000,A01525,1,1552633369000
1552633394359.3798828125,25,11.0900000000,A01525,1,1552633369000
1552633394375.0000000000,25,11.3800000000,A01525,1,1552633369000
1552633394390.6201171875,25,11.0500000000,A01525,1,1552633369000
1552633394406.2500000000,25,10.5800000000,A01525,1,1552633369000
1552633394421.8798828125,25,10.4600000000,A01525,1,1552633369000
1552633394437.5000000000,25,10.9500000000,A01525,1,1552633369000
1552633394453.1201171875,25,11.8900000000,A01525,1,1552633369000
1552633394468.7500000000,25,12.9300000000,A01525,1,1552633369000
1552633394484.3798828125,25,13.6400000000,A01525,1,1552633369000
1552633394500.0000000000,25,13.8000000000,A01525,1,1552633369000
1552633394515.6201171875,25,13.4800000000,A01525,1,1552633369000
1552633394531.2500000000,25,12.9900000000,A01525,1,1552633369000
1552633394546.8798828125,25,12.7500000000,A01525,1,1552633369000
1552633394562.5000000000,25,13.0000000000,A01525,1,1552633369000
1552633394578.1201171875,25,13.7300000000,A01525,1,1552633369000
1552633394593.7500000000,25,14.5700000000,A01525,1,1552633369000
1552633394609.3798828125,25,15.0300000000,A01525,1,1552633369000
1552633394625.0000000000,25,14.7300000000,A01525,1,1552633369000
1552633394640.6201171875,25,13.5700000000,A01525,1,1552633369000
1552633394656.2500000000,25,11.7700000000,A01525,1,1552633369000
1552633394671.8798828125,25,9.7500000000,A01525,1,1552633369000
1552633394687.5000000000,25,7.9000000000,A01525,1,1552633369000
1552633394703.1201171875,25,6.3500000000,A01525,1,1552633369000
1552633394718.7500000000,25,4.9300000000,A01525,1,1552633369000
1552633394734.3798828125,25,3.3600000000,A01525,1,1552633369000
1552633394750.0000000000,25,1.4000000000,A01525,1,1552633369000
1552633394765.6201171875,25,-0.9300000000,A01525,1,1552633369000
1552633394781.2500000000,25,-3.3700000000,A01525,1,1552633369000
1552633394796.8798828125,25,-5.4800000000,A01525,1,1552633369000
1552633394812.5000000000,25,-6.9500000000,A01525,1,1552633369000
1552633394828.1201171875,25,-7.7200000000,A01525,1,1552633369000
1552633394843.7500000000,25,-8.0600000000,A01525,1,1552633369000
1552633394859.3798828125,25,-8.4400000000,A01525,1,1552633369000
1552633394875.0000000000,25,-9.3000000000,A01525,1,1552633369000
1552633394890.6201171875,25,-10.9500000000,A01525,1,1552633369000
1552633394906.2500000000,25,-13.4300000000,A01525,1,1552633369000
1552633394921.8798828125,25,-16.5600000000,A01525,1,1552633369000
1552633394937.5000000000,25,-19.9700000000,A01525,1,1552633369000
1552633394953.1201171875,25,-23.2800000000,A01525,1,1552633369000
1552633394968.7500000000,25,-26.0900000000,A01525,1,1552633369000
1552633394984.3798828125,25,-28.0700000000,A01525,1,1552633369000
1552633395000.0000000000,25,-28.9300000000,A01525,1,1552633369000
1552633395015.6201171875,25,-28.4500000000,A01525,1,1552633369000
1552633395031.2500000000,25,-26.5300000000,A01525,1,1552633369000
1552633395046.8798828125,25,-23.2900000000,A01525,1,1552633369000
1552633395062.5000000000,25,-19.0000000000,A01525,1,1552633369000
1552633395078.1201171875,25,-14.1600000000,A01525,1,1552633369000
1552633395093.7500000000,25,-9.3200000000,A01525,1,1552633369000
1552633395109.3798828125,25,-4.9400000000,A01525,1,1552633369000
1552633395125.0000000000,25,-1.2500000000,A01525,1,1552633369000
1552633395140.6201171875,25,1.8200000000,A01525,1,1552633369000
1552633395156.2500000000,25,4.5400000000,A01525,1,1552633369000
1552633395171.8798828125,25,7.2800000000,A01525,1,1552633369000
1552633395187.5000000000,25,10.2700000000,A01525,1,1552633369000
1552633395203.1201171875,25,13.4900000000,A01525,1,1552633369000
1552633395218.7500000000,25,16.6200000000,A01525,1,1552633369000
1552633395234.3798828125,25,19.2400000000,A01525,1,1552633369000
1552633395250.0000000000,25,20.9700000000,A01525,1,1552633369000
1552633395265.6201171875,25,21.7000000000,A01525,1,1552633369000
1552633395281.2500000000,25,21.5900000000,A01525,1,1552633369000
1552633395296.8798828125,25,20.9800000000,A01525,1,1552633369000
1552633395312.5000000000,25,20.2500000000,A01525,1,1552633369000
1552633395328.1201171875,25,19.5700000000,A01525,1,1552633369000
1552633395343.7500000000,25,18.9400000000,A01525,1,1552633369000
1552633395359.3798828125,25,18.2500000000,A01525,1,1552633369000
1552633395375.0000000000,25,17.3800000000,A01525,1,1552633369000
1552633395390.6201171875,25,16.3900000000,A01525,1,1552633369000
1552633395406.2500000000,25,15.4300000000,A01525,1,1552633369000
1552633395421.8798828125,25,14.7300000000,A01525,1,1552633369000
1552633395437.5000000000,25,14.3700000000,A01525,1,1552633369000
1552633395453.1201171875,25,14.2500000000,A01525,1,1552633369000
1552633395468.7500000000,25,14.1000000000,A01525,1,1552633369000
1552633395484.3798828125,25,13.5600000000,A01525,1,1552633369000
1552633395500.0000000000,25,12.4800000000,A01525,1,1552633369000
1552633395515.6201171875,25,10.9700000000,A01525,1,1552633369000
1552633395531.2500000000,25,9.3200000000,A01525,1,1552633369000
1552633395546.8798828125,25,7.9900000000,A01525,1,1552633369000
1552633395562.5000000000,25,7.2600000000,A01525,1,1552633369000
1552633395578.1201171875,25,7.1300000000,A01525,1,1552633369000
1552633395593.7500000000,25,7.3000000000,A01525,1,1552633369000
1552633395609.3798828125,25,7.2600000000,A01525,1,1552633369000
1552633395625.0000000000,25,6.5900000000,A01525,1,1552633369000
1552633395640.6201171875,25,5.0900000000,A01525,1,1552633369000
1552633395656.2500000000,25,2.8900000000,A01525,1,1552633369000
1552633395671.8798828125,25,0.3800000000,A01525,1,1552633369000
1552633395687.5000000000,25,-1.9900000000,A01525,1,1552633369000
1552633395703.1201171875,25,-3.8600000000,A01525,1,1552633369000
1552633395718.7500000000,25,-5.1400000000,A01525,1,1552633369000
1552633395734.3798828125,25,-5.9500000000,A01525,1,1552633369000
1552633395750.0000000000,25,-6.6500000000,A01525,1,1552633369000
1552633395765.6201171875,25,-7.5900000000,A01525,1,1552633369000
1552633395781.2500000000,25,-9.0400000000,A01525,1,1552633369000
1552633395796.8798828125,25,-11.1100000000,A01525,1,1552633369000
1552633395812.5000000000,25,-13.7400000000,A01525,1,1552633369000
1552633395828.1201171875,25,-16.7200000000,A01525,1,1552633369000
1552633395843.7500000000,25,-19.8100000000,A01525,1,1552633369000
1552633395859.3798828125,25,-22.7400000000,A01525,1,1552633369000
1552633395875.0000000000,25,-25.1800000000,A01525,1,1552633369000
1552633395890.6201171875,25,-26.7900000000,A01525,1,1552633369000
1552633395906.2500000000,25,-27.2000000000,A01525,1,1552633369000
1552633395921.8798828125,25,-26.1300000000,A01525,1,1552633369000
1552633395937.5000000000,25,-23.5200000000,A01525,1,1552633369000
1552633395953.1201171875,25,-19.6300000000,A01525,1,1552633369000
1552633395968.7500000000,25,-14.9900000000,A01525,1,1552633369000
1552633395984.3798828125,25,-10.3500000000,A01525,1,1552633369000
1552633396000.0000000000,25,-6.3100000000,A01525,1,1552633369000
1552633396015.6201171875,25,-3.1800000000,A01525,1,1552633369000
1552633396031.2500000000,25,-0.8400000000,A01525,1,1552633369000
1552633396046.8798828125,25,1.0600000000,A01525,1,1552633369000
1552633396062.5000000000,25,2.9400000000,A01525,1,1552633369000
1552633396078.1201171875,25,5.0000000000,A01525,1,1552633369000
1552633396093.7500000000,25,7.1500000000,A01525,1,1552633369000
1552633396109.3798828125,25,9.1100000000,A01525,1,1552633369000
1552633396125.0000000000,25,10.6300000000,A01525,1,1552633369000
1552633396140.6201171875,25,11.6800000000,A01525,1,1552633369000
1552633396156.2500000000,25,12.4500000000,A01525,1,1552633369000
1552633396171.8798828125,25,13.2400000000,A01525,1,1552633369000
1552633396187.5000000000,25,14.2600000000,A01525,1,1552633369000
1552633396203.1201171875,25,15.5000000000,A01525,1,1552633369000
1552633396218.7500000000,25,16.7000000000,A01525,1,1552633369000
1552633396234.3798828125,25,17.5800000000,A01525,1,1552633369000
1552633396250.0000000000,25,17.9500000000,A01525,1,1552633369000
1552633396265.6201171875,25,17.8300000000,A01525,1,1552633369000
1552633396281.2500000000,25,17.3900000000,A01525,1,1552633369000
1552633396296.8798828125,25,16.8700000000,A01525,1,1552633369000
1552633396312.5000000000,25,16.3600000000,A01525,1,1552633369000
1552633396328.1201171875,25,15.7900000000,A01525,1,1552633369000
1552633396343.7500000000,25,14.9400000000,A01525,1,1552633369000
1552633396359.3798828125,25,13.6200000000,A01525,1,1552633369000
1552633396375.0000000000,25,11.7700000000,A01525,1,1552633369000
1552633396390.6201171875,25,9.5600000000,A01525,1,1552633369000
1552633396406.2500000000,25,7.2800000000,A01525,1,1552633369000
1552633396421.8798828125,25,5.2300000000,A01525,1,1552633369000
1552633396437.5000000000,25,3.5600000000,A01525,1,1552633369000
1552633396453.1201171875,25,2.1800000000,A01525,1,1552633369000
1552633396468.7500000000,25,0.8600000000,A01525,1,1552633369000
1552633396484.3798828125,25,-0.6700000000,A01525,1,1552633369000
1552633396500.0000000000,25,-2.5500000000,A01525,1,1552633369000
1552633396515.6201171875,25,-4.6400000000,A01525,1,1552633369000
1552633396531.2500000000,25,-6.6900000000,A01525,1,1552633369000
1552633396546.8798828125,25,-8.3700000000,A01525,1,1552633369000
1552633396562.5000000000,25,-9.5400000000,A01525,1,1552633369000
1552633396578.1201171875,25,-10.3200000000,A01525,1,1552633369000
1552633396593.7500000000,25,-11.0700000000,A01525,1,1552633369000
1552633396609.3798828125,25,-12.2700000000,A01525,1,1552633369000
1552633396625.0000000000,25,-14.2100000000,A01525,1,1552633369000
1552633396640.6201171875,25,-16.8700000000,A01525,1,1552633369000
1552633396656.2500000000,25,-19.8200000000,A01525,1,1552633369000
1552633396671.8798828125,25,-22.3800000000,A01525,1,1552633369000
1552633396687.5000000000,25,-23.8300000000,A01525,1,1552633369000
1552633396703.1201171875,25,-23.7600000000,A01525,1,1552633369000
1552633396718.7500000000,25,-22.1400000000,A01525,1,1552633369000
1552633396734.3798828125,25,-19.3100000000,A01525,1,1552633369000
1552633396750.0000000000,25,-15.8100000000,A01525,1,1552633369000
1552633396765.6201171875,25,-12.1100000000,A01525,1,1552633369000
1552633396781.2500000000,25,-8.4400000000,A01525,1,1552633369000
1552633396796.8798828125,25,-4.8300000000,A01525,1,1552633369000
1552633396812.5000000000,25,-1.1900000000,A01525,1,1552633369000
1552633396828.1201171875,25,2.4300000000,A01525,1,1552633369000
1552633396843.7500000000,25,5.8200000000,A01525,1,1552633369000
1552633396859.3798828125,25,8.6400000000,A01525,1,1552633369000
1552633396875.0000000000,25,10.5900000000,A01525,1,1552633369000
1552633396890.6201171875,25,11.6000000000,A01525,1,1552633369000
1552633396906.2500000000,25,11.9500000000,A01525,1,1552633369000
1552633396921.8798828125,25,12.0800000000,A01525,1,1552633369000
1552633396937.5000000000,25,12.4500000000,A01525,1,1552633369000
1552633396953.1201171875,25,13.2600000000,A01525,1,1552633369000
1552633396968.7500000000,25,14.4100000000,A01525,1,1552633369000
1552633396984.3798828125,25,15.5200000000,A01525,1,1552633369000
1552633397000.0000000000,25,16.2500000000,A01525,1,1552633369000
1552633397015.6201171875,25,16.4600000000,A01525,1,1552633369000
1552633397031.2500000000,25,16.2900000000,A01525,1,1552633369000
1552633397046.8798828125,25,16.1300000000,A01525,1,1552633369000
1552633397062.5000000000,25,16.2600000000,A01525,1,1552633369000
1552633397078.1201171875,25,16.8000000000,A01525,1,1552633369000
1552633397093.7500000000,25,17.5200000000,A01525,1,1552633369000
1552633397109.3798828125,25,18.0300000000,A01525,1,1552633369000
1552633397125.0000000000,25,17.9400000000,A01525,1,1552633369000
1552633397140.6201171875,25,17.0900000000,A01525,1,1552633369000
1552633397156.2500000000,25,15.6300000000,A01525,1,1552633369000
1552633397171.8798828125,25,13.9200000000,A01525,1,1552633369000
1552633397187.5000000000,25,12.3600000000,A01525,1,1552633369000
1552633397203.1201171875,25,11.1700000000,A01525,1,1552633369000
1552633397218.7500000000,25,10.2900000000,A01525,1,1552633369000
1552633397234.3798828125,25,9.4800000000,A01525,1,1552633369000
1552633397250.0000000000,25,8.4500000000,A01525,1,1552633369000
1552633397265.6201171875,25,7.0600000000,A01525,1,1552633369000
1552633397281.2500000000,25,5.3700000000,A01525,1,1552633369000
1552633397296.8798828125,25,3.6200000000,A01525,1,1552633369000
1552633397312.5000000000,25,2.0300000000,A01525,1,1552633369000
1552633397328.1201171875,25,0.6900000000,A01525,1,1552633369000
1552633397343.7500000000,25,-0.5700000000,A01525,1,1552633369000
1552633397359.3798828125,25,-1.9800000000,A01525,1,1552633369000
1552633397375.0000000000,25,-3.7200000000,A01525,1,1552633369000
1552633397390.6201171875,25,-5.7100000000,A01525,1,1552633369000
1552633397406.2500000000,25,-7.6400000000,A01525,1,1552633369000
1552633397421.8798828125,25,-9.1500000000,A01525,1,1552633369000
1552633397437.5000000000,25,-10.0100000000,A01525,1,1552633369000
1552633397453.1201171875,25,-10.3900000000,A01525,1,1552633369000
1552633397468.7500000000,25,-10.7800000000,A01525,1,1552633369000
1552633397484.3798828125,25,-11.8600000000,A01525,1,1552633369000
1552633397500.0000000000,25,-14.1300000000,A01525,1,1552633369000
1552633397515.6201171875,25,-17.6100000000,A01525,1,1552633369000
1552633397531.2500000000,25,-21.7100000000,A01525,1,1552633369000
1552633397546.8798828125,25,-25.4100000000,A01525,1,1552633369000
1552633397562.5000000000,25,-27.6300000000,A01525,1,1552633369000
1552633397578.1201171875,25,-27.7000000000,A01525,1,1552633369000
1552633397593.7500000000,25,-25.6600000000,A01525,1,1552633369000
1552633397609.3798828125,25,-22.1200000000,A01525,1,1552633369000
1552633397625.0000000000,25,-18.0600000000,A01525,1,1552633369000
1552633397640.6201171875,25,-14.2500000000,A01525,1,1552633369000
1552633397656.2500000000,25,-10.9900000000,A01525,1,1552633369000
1552633397671.8798828125,25,-8.1000000000,A01525,1,1552633369000
1552633397687.5000000000,25,-5.1500000000,A01525,1,1552633369000
1552633397703.1201171875,25,-1.8400000000,A01525,1,1552633369000
1552633397718.7500000000,25,1.7800000000,A01525,1,1552633369000
1552633397734.3798828125,25,5.3300000000,A01525,1,1552633369000
1552633397750.0000000000,25,8.3900000000,A01525,1,1552633369000
1552633397765.6201171875,25,10.6900000000,A01525,1,1552633369000
1552633397781.2500000000,25,12.3100000000,A01525,1,1552633369000
